# Pulseq sequence file
# Created by MATLAB mr toolbox

[VERSION]
major 1
minor 5
revision 0

[DEFINITIONS]
AdcRasterTime 1e-07 
BlockDurationRaster 1e-05 
FOV 0.192 0.192 0.15 
GradientRasterTime 1e-05 
MaxAdcSegmentLength 3152 
Name mreg_FOV 
RadiofrequencyRasterTime 1e-06 
ReceiverGainHigh 1 
TE 0.00161 0.01656 
TotalDuration 0.1 

# Format of blocks:
# NUM DUR RF  GX  GY  GZ  ADC  EXT
[BLOCKS]
1 151   1   0   0   1  0  0
2  10   0   0   0   2  0  0
3   0   0   0   0   0  0  1
4 3155   0   3   4   5  1  0
5   0   0   0   0   0  0  2
6 683   0   6   6   6  0  0
7 6001   0   0   0   0  0  0

# Format of RF events:
# id ampl. mag_id phase_id time_shape_id center delay freqPPM phasePPM freq phase use
# ..   Hz      ..       ..            ..     us    us     ppm  rad/MHz   Hz   rad  ..
# Field 'use' is the initial of: excitation refocusing inversion saturation preparation other undefined
[RF]
1      793.451 1 2 0 700 100 0 0 0 0 e

# Format of arbitrary gradients:
#   time_shape_id of 0 means default timing (stepping with grad_raster starting at 1/2 of grad_raster)
# id amplitude first last amp_shape_id time_shape_id delay
# ..      Hz/m  Hz/m Hz/m        ..         ..          us
[GRADIENTS]
3   2.3422e+06            0            0 3 0 10
4  2.36507e+06            0            0 4 0 10
5  -2.3779e+06            0            0 5 0 10

# Format of trapezoid gradients:
# id amplitude rise flat fall delay
# ..      Hz/m   us   us   us    us
[TRAP]
 1      95238.1  10 1400  10  90
 2 -1.34286e+06  50    0  50   0
 6 -1.61551e+06 640 5550 640   0

# Format of ADC events:
# id num dwell delay freqPPM phasePPM freq phase phase_id
# ..  ..    ns    us     ppm  rad/MHz   Hz   rad       ..
[ADC]
1 6304 5000 10 0 0 0 0 0

# Format of extension lists:
# id type ref next_id
# next_id of 0 terminates the list
# Extension list is followed by extension specifications
[EXTENSIONS]
1 1 1 0
2 1 2 0

# Extension specification for setting labels:
# id set labelstring
extension LABELSET 1
1 1 NOPOS
2 0 NOPOS

# Sequence Shapes
[SHAPES]

shape_id 1
num_samples 1400
8.99842151e-10
2.43199855e-08
1.12656298e-07
3.09170473e-07
6.56904246e-07
1.19849185e-06
1.97597265e-06
3.03060449e-06
4.40267826e-06
6.13133416e-06
8.25438023e-06
1.08081136e-05
1.38271452e-05
1.73442275e-05
2.13900878e-05
2.59932649e-05
3.11799517e-05
3.69738435e-05
4.33959919e-05
5.04646662e-05
5.81952207e-05
6.65999704e-05
7.56880738e-05
8.54654244e-05
9.59345506e-05
0.000107094525
0.000118940881
0.000131465543
0.000144656762
0.000158499065
0.00017297321
0.00018805616
0.000203721059
0.000219937222
0.000236670141
0.000253881493
0.000271529171
0.000289567313
0.000307946355
0.00032661309
0.000345510734
0.000364579015
0.000383754263
0.000402969516
0.000422154638
0.000441236446
0.000460138849
0.000478782996
0.000497087441
0.000514968309
0.00053233948
0.000549112778
0.000565198171
0.000580503982
0.000594937105
0.000608403235
0.000620807096
0.000632052689
0.000642043539
0.000650682947
0.000657874259
0.000663521124
0.000667527772
0.00066979929
0.0006702419
0.000668763241
0.00066527266
0.000659681496
0.000651903371
0.000641854477
0.00062945387
0.000614623758
0.000597289788
0.000577381332
0.000554831771
0.000529578776
0.000501564581
0.000470736257
0.000437045976
0.000400451271
0.000360915288
0.000318407032
0.000272901604
0.000224380428
0.00017283147
0.000118249448
6.06360244e-05
1.48373487e-18
6.36425181e-05
0.000130267953
0.000199845108
0.000272335037
0.000347690918
0.00042585795
0.000506773266
0.000590365854
0.0006765565
0.000765257746
0.000856373867
0.000949800861
0.00104542646
0.00114313016
0.00124278326
0.00134424894
0.00144738233
0.00155203061
0.00165803316
0.00176522166
0.00187342027
0.0019824458
0.00209210792
0.00220220937
0.00231254618
0.00242290793
0.00253307803
0.00264283403
0.00275194785
0.00286018621
0.00296731089
0.00307307913
0.00317724399
0.00327955477
0.00337975737
0.00347759476
0.0035728074
0.00366513367
0.00375431037
0.00384007319
0.00392215718
0.00400029726
0.00407422874
0.00414368785
0.00420841222
0.00426814149
0.00432261777
0.00437158629
0.00441479585
0.00445199947
0.00448295488
0.00450742516
0.00452517922
0.00453599245
0.00453964723
0.00453593349
0.00452464934
0.00450560152
0.00447860605
0.0044434887
0.00440008558
0.00434824364
0.00428782118
0.00421868838
0.0041407278
0.00405383481
0.00395791813
0.00385290024
0.00373871781
0.00361532215
0.00348267957
0.0033407718
0.00318959634
0.00302916675
0.00285951306
0.00268068196
0.00249273714
0.00229575951
0.00208984739
0.00187511676
0.00165170134
0.00141975282
0.00117944086
0.000930953247
0.000674495899
0.000410292885
0.000138586405
0.000140363257
0.00042627782
0.000718861122
0.00101779927
0.00132276082
0.001633397
0.00194934196
0.00227021303
0.0025956111
0.00292512091
0.00325831147
0.00359473645
0.0039339347
0.00427543064
0.00461873489
0.00496334471
0.00530874468
0.00565440727
0.0059997935
0.00634435361
0.00668752778
0.00702874686
0.00736743315
0.00770300119
0.00803485856
0.00836240675
0.00868504203
0.00900215634
0.00931313821
0.00961737368
0.00991424729
0.0102031431
0.0104834454
0.0107545403
0.0110158162
0.0112666649
0.0115064831
0.011734673
0.0119506433
0.0121538109
0.0123436012
0.0125194498
0.0126808033
0.0128271202
0.0129578725
0.0130725463
0.0131706432
0.013251681
0.0133151954
0.0133607402
0.013387889
0.013396236
0.0133853969
0.0133550099
0.0133047371
0.0132342646
0.0131433042
0.013031594
0.0128988991
0.0127450128
0.012569757
0.0123729831
0.0121545732
0.01191444
0.0116525279
0.0113688139
0.0110633074
0.0107360517
0.0103871235
0.0100166342
0.00962472977
0.00921159134
0.00877743539
0.00832251409
0.00784711542
0.00735156339
0.00683621805
0.00630147563
0.00574776843
0.0051755648
0.00458536899
0.00397772096
0.00335319616
0.00271240518
0.00205599341
0.00138464062
0.000699060483
5.77812473e-17
0.000711761069
0.00143541088
0.00217010623
0.00291497332
0.00366910862
0.00443157974
0.00520142638
0.00597766138
0.00675927173
0.00754521975
0.00833444422
0.00912586162
0.00991836742
0.0107108374
0.0115021291
0.012291083
0.0130765244
0.0138572646
0.0146321026
0.0153998266
0.016159216
0.0169090424
0.0176480721
0.0183750673
0.0190887879
0.0197879937
0.0204714459
0.021137909
0.0217861528
0.0224149542
0.0230230992
0.0236093846
0.0241726203
0.0247116309
0.0252252578
0.0257123614
0.0261718226
0.026602545
0.0270034569
0.0273735129
0.0277116964
0.0280170209
0.0282885324
0.0285253108
0.0287264722
0.0288911703
0.0290185984
0.0291079913
0.0291586267
0.0291698269
0.0291409607
0.0290714449
0.0289607456
0.0288083799
0.0286139172
0.028376981
0.0280972494
0.0277744571
0.0274083963
0.0269989178
0.026545932
0.02604941
0.0255093845
0.0249259505
0.0242992662
0.0236295535
0.0229170987
0.022162253
0.0213654327
0.0205271198
0.0196478622
0.0187282734
0.0177690333
0.0167708874
0.015734647
0.0146611892
0.013551456
0.0124064543
0.0112272551
0.010014993
0.00877086548
0.00749613195
0.00619211289
0.00486018881
0.00350179909
0.00211844074
0.000711667092
0.00071691363
0.00216563986
0.00363279831
0.00511662567
0.00661531042
0.00812699474
0.00964977652
0.0111817114
0.012720815
0.0142650651
0.0158124039
0.0173607408
0.0189079544
0.0204518953
0.0219903889
0.0235212378
0.0250422248
0.0265511155
0.0280456615
0.0295236033
0.0309826728
0.0324205972
0.0338351014
0.0352239116
0.036584758
0.0379153786
0.039213522
0.0404769508
0.041703445
0.0428908051
0.0440368556
0.0451394484
0.0461964657
0.0472058239
0.0481654766
0.0490734178
0.0499276857
0.0507263654
0.0514675924
0.0521495562
0.0527705026
0.0533287378
0.0538226311
0.0542506176
0.054611202
0.0549029609
0.0551245458
0.0552746864
0.0553521927
0.055355958
0.0552849614
0.0551382704
0.0549150434
0.0546145316
0.0542360816
0.0537791377
0.0532432431
0.0526280427
0.0519332845
0.0511588212
0.0503046117
0.0493707228
0.0483573303
0.0472647203
0.0460932899
0.0448435483
0.0435161178
0.042111734
0.0406312462
0.0390756182
0.037445928
0.035743368
0.0339692449
0.0321249791
0.0302121047
0.0282322685
0.0261872293
0.0240788572
0.0219091321
0.0196801428
0.0173940856
0.0150532623
0.0126600788
0.0102170434
0.00772676421
0.00519194733
0.00261539438
1.03358224e-16
0.00265125088
0.00533528581
0.00804894781
0.0107889985
0.0135521214
0.0163349252
0.0191339476
0.0219456585
0.0247664643
0.0275927116
0.0304206914
0.033246643
0.0360667588
0.0388771882
0.0416740423
0.0444533988
0.0472113063
0.0499437894
0.0526468536
0.05531649
0.0579486808
0.060539404
0.063084639
0.0655803716
0.0680225994
0.0704073371
0.0727306221
0.0749885195
0.0771771281
0.0792925856
0.0813310741
0.0832888255
0.0851621274
0.0869473281
0.0886408424
0.0902391571
0.0917388361
0.0931365262
0.0944289622
0.0956129723
0.0966854832
0.0976435257
0.0984842393
0.0992048775
0.0998028129
0.100275542
0.100620689
0.100836012
0.100919408
0.100868913
0.100682713
0.100359142
0.0998966907
0.0992940066
0.0985499004
0.0976633485
0.0966334963
0.0954596619
0.0941413388
0.0926781991
0.0910700958
0.0893170655
0.0874193309
0.0853773025
0.0831915809
0.0808629581
0.0783924195
0.0757811445
0.0730305082
0.0701420818
0.0671176332
0.0639591278
0.0606687279
0.0572487933
0.0537018806
0.0500307426
0.0462383277
0.0423277786
0.0383024313
0.0341658132
0.0299216417
0.0255738219
0.0211264444
0.0165837827
0.011950291
0.00723060041
0.00242951625
0.00244798552
0.007396762
0.0124115073
0.0174867566
0.0226168905
0.02779614
0.0330185906
0.038278188
0.0435687429
0.0488839367
0.054217327
0.0595623535
0.0649123438
0.0702605202
0.0756000055
0.0809238296
0.0862249366
0.0914961915
0.0967303873
0.101920252
0.107058456
0.112137619
0.117150321
0.122089103
0.126946482
0.131714954
0.136387007
0.140955123
0.145411789
0.149749508
0.153960803
0.158038227
0.161974371
0.165761874
0.169393429
0.172861793
0.176159795
0.179280345
0.18221644
0.184961176
0.187507754
0.189849488
0.191979815
0.193892301
0.195580651
0.197038716
0.198260502
0.199240174
0.199972069
0.2004507
0.200670765
0.200627154
0.200314953
0.199729459
0.198866175
0.197720829
0.19628937
0.194567982
0.192553084
0.19024134
0.187629663
0.18471522
0.181495436
0.177968004
0.174130883
0.169982305
0.165520781
0.160745104
0.155654348
0.150247879
0.144525351
0.138486715
0.132132215
0.125462394
0.118478096
0.111180466
0.103570952
0.0956513049
0.0874235797
0.0788901365
0.0700536392
0.0609170559
0.0514836577
0.0417570179
0.0317410106
0.0214398092
0.0108578839
2.3447056e-16
0.0111287853
0.0225231254
0.034177388
0.0460856583
0.0582417433
0.0706391758
0.0832712186
0.0961308702
0.109210869
0.122503699
0.136001597
0.149696555
0.16358033
0.177644449
0.191880216
0.206278719
0.220830839
0.235527254
0.250358449
0.265314725
0.280386205
0.295562845
0.310834441
0.326190637
0.341620936
0.35711471
0.372661207
0.388249561
0.403868802
0.41950787
0.435155616
0.450800822
0.466432204
0.482038427
0.497608112
0.513129849
0.528592206
0.543983742
0.559293014
0.574508592
0.589619065
0.604613057
0.619479233
0.634206313
0.648783081
0.663198398
0.677441208
0.691500554
0.705365584
0.719025567
0.732469895
0.745688103
0.758669871
0.771405039
0.783883612
0.796095778
0.808031908
0.819682572
0.831038546
0.842090819
0.852830607
0.863249355
0.873338752
0.883090736
0.892497498
0.901551499
0.910245469
0.918572418
0.926525642
0.934098731
0.941285572
0.94808036
0.9544776
0.960472111
0.966059038
0.97123385
0.975992346
0.980330663
0.984245274
0.987732996
0.990790991
0.993416772
0.995608198
0.997363486
0.998681206
0.999560282
1
1
0.999560282
0.998681206
0.997363486
0.995608198
0.993416772
0.990790991
0.987732996
0.984245274
0.980330663
0.975992346
0.97123385
0.966059038
0.960472111
0.9544776
0.94808036
0.941285572
0.934098731
0.926525642
0.918572418
0.910245469
0.901551499
0.892497498
0.883090736
0.873338752
0.863249355
0.852830607
0.842090819
0.831038546
0.819682572
0.808031908
0.796095778
0.783883612
0.771405039
0.758669871
0.745688103
0.732469895
0.719025567
0.705365584
0.691500554
0.677441208
0.663198398
0.648783081
0.634206313
0.619479233
0.604613057
0.589619065
0.574508592
0.559293014
0.543983742
0.528592206
0.513129849
0.497608112
0.482038427
0.466432204
0.450800822
0.435155616
0.41950787
0.403868802
0.388249561
0.372661207
0.35711471
0.341620936
0.326190637
0.310834441
0.295562845
0.280386205
0.265314725
0.250358449
0.235527254
0.220830839
0.206278719
0.191880216
0.177644449
0.16358033
0.149696555
0.136001597
0.122503699
0.109210869
0.0961308702
0.0832712186
0.0706391758
0.0582417433
0.0460856583
0.034177388
0.0225231254
0.0111287853
2.3447056e-16
0.0108578839
0.0214398092
0.0317410106
0.0417570179
0.0514836577
0.0609170559
0.0700536392
0.0788901365
0.0874235797
0.0956513049
0.103570952
0.111180466
0.118478096
0.125462394
0.132132215
0.138486715
0.144525351
0.150247879
0.155654348
0.160745104
0.165520781
0.169982305
0.174130883
0.177968004
0.181495436
0.18471522
0.187629663
0.19024134
0.192553084
0.194567982
0.19628937
0.197720829
0.198866175
0.199729459
0.200314953
0.200627154
0.200670765
0.2004507
0.199972069
0.199240174
0.198260502
0.197038716
0.195580651
0.193892301
0.191979815
0.189849488
0.187507754
0.184961176
0.18221644
0.179280345
0.176159795
0.172861793
0.169393429
0.165761874
0.161974371
0.158038227
0.153960803
0.149749508
0.145411789
0.140955123
0.136387007
0.131714954
0.126946482
0.122089103
0.117150321
0.112137619
0.107058456
0.101920252
0.0967303873
0.0914961915
0.0862249366
0.0809238296
0.0756000055
0.0702605202
0.0649123438
0.0595623535
0.054217327
0.0488839367
0.0435687429
0.038278188
0.0330185906
0.02779614
0.0226168905
0.0174867566
0.0124115073
0.007396762
0.00244798552
0.00242951625
0.00723060041
0.011950291
0.0165837827
0.0211264444
0.0255738219
0.0299216417
0.0341658132
0.0383024313
0.0423277786
0.0462383277
0.0500307426
0.0537018806
0.0572487933
0.0606687279
0.0639591278
0.0671176332
0.0701420818
0.0730305082
0.0757811445
0.0783924195
0.0808629581
0.0831915809
0.0853773025
0.0874193309
0.0893170655
0.0910700958
0.0926781991
0.0941413388
0.0954596619
0.0966334963
0.0976633485
0.0985499004
0.0992940066
0.0998966907
0.100359142
0.100682713
0.100868913
0.100919408
0.100836012
0.100620689
0.100275542
0.0998028129
0.0992048775
0.0984842393
0.0976435257
0.0966854832
0.0956129723
0.0944289622
0.0931365262
0.0917388361
0.0902391571
0.0886408424
0.0869473281
0.0851621274
0.0832888255
0.0813310741
0.0792925856
0.0771771281
0.0749885195
0.0727306221
0.0704073371
0.0680225994
0.0655803716
0.063084639
0.060539404
0.0579486808
0.05531649
0.0526468536
0.0499437894
0.0472113063
0.0444533988
0.0416740423
0.0388771882
0.0360667588
0.033246643
0.0304206914
0.0275927116
0.0247664643
0.0219456585
0.0191339476
0.0163349252
0.0135521214
0.0107889985
0.00804894781
0.00533528581
0.00265125088
1.57260563e-16
0.00261539438
0.00519194733
0.00772676421
0.0102170434
0.0126600788
0.0150532623
0.0173940856
0.0196801428
0.0219091321
0.0240788572
0.0261872293
0.0282322685
0.0302121047
0.0321249791
0.0339692449
0.035743368
0.037445928
0.0390756182
0.0406312462
0.042111734
0.0435161178
0.0448435483
0.0460932899
0.0472647203
0.0483573303
0.0493707228
0.0503046117
0.0511588212
0.0519332845
0.0526280427
0.0532432431
0.0537791377
0.0542360816
0.0546145316
0.0549150434
0.0551382704
0.0552849614
0.055355958
0.0553521927
0.0552746864
0.0551245458
0.0549029609
0.054611202
0.0542506176
0.0538226311
0.0533287378
0.0527705026
0.0521495562
0.0514675924
0.0507263654
0.0499276857
0.0490734178
0.0481654766
0.0472058239
0.0461964657
0.0451394484
0.0440368556
0.0428908051
0.041703445
0.0404769508
0.039213522
0.0379153786
0.036584758
0.0352239116
0.0338351014
0.0324205972
0.0309826728
0.0295236033
0.0280456615
0.0265511155
0.0250422248
0.0235212378
0.0219903889
0.0204518953
0.0189079544
0.0173607408
0.0158124039
0.0142650651
0.012720815
0.0111817114
0.00964977652
0.00812699474
0.00661531042
0.00511662567
0.00363279831
0.00216563986
0.00071691363
0.000711667092
0.00211844074
0.00350179909
0.00486018881
0.00619211289
0.00749613195
0.00877086548
0.010014993
0.0112272551
0.0124064543
0.013551456
0.0146611892
0.015734647
0.0167708874
0.0177690333
0.0187282734
0.0196478622
0.0205271198
0.0213654327
0.022162253
0.0229170987
0.0236295535
0.0242992662
0.0249259505
0.0255093845
0.02604941
0.026545932
0.0269989178
0.0274083963
0.0277744571
0.0280972494
0.028376981
0.0286139172
0.0288083799
0.0289607456
0.0290714449
0.0291409607
0.0291698269
0.0291586267
0.0291079913
0.0290185984
0.0288911703
0.0287264722
0.0285253108
0.0282885324
0.0280170209
0.0277116964
0.0273735129
0.0270034569
0.026602545
0.0261718226
0.0257123614
0.0252252578
0.0247116309
0.0241726203
0.0236093846
0.0230230992
0.0224149542
0.0217861528
0.021137909
0.0204714459
0.0197879937
0.0190887879
0.0183750673
0.0176480721
0.0169090424
0.016159216
0.0153998266
0.0146321026
0.0138572646
0.0130765244
0.012291083
0.0115021291
0.0107108374
0.00991836742
0.00912586162
0.00833444422
0.00754521975
0.00675927173
0.00597766138
0.00520142638
0.00443157974
0.00366910862
0.00291497332
0.00217010623
0.00143541088
0.000711761069
5.77812473e-17
0.000699060483
0.00138464062
0.00205599341
0.00271240518
0.00335319616
0.00397772096
0.00458536899
0.0051755648
0.00574776843
0.00630147563
0.00683621805
0.00735156339
0.00784711542
0.00832251409
0.00877743539
0.00921159134
0.00962472977
0.0100166342
0.0103871235
0.0107360517
0.0110633074
0.0113688139
0.0116525279
0.01191444
0.0121545732
0.0123729831
0.012569757
0.0127450128
0.0128988991
0.013031594
0.0131433042
0.0132342646
0.0133047371
0.0133550099
0.0133853969
0.013396236
0.013387889
0.0133607402
0.0133151954
0.013251681
0.0131706432
0.0130725463
0.0129578725
0.0128271202
0.0126808033
0.0125194498
0.0123436012
0.0121538109
0.0119506433
0.011734673
0.0115064831
0.0112666649
0.0110158162
0.0107545403
0.0104834454
0.0102031431
0.00991424729
0.00961737368
0.00931313821
0.00900215634
0.00868504203
0.00836240675
0.00803485856
0.00770300119
0.00736743315
0.00702874686
0.00668752778
0.00634435361
0.0059997935
0.00565440727
0.00530874468
0.00496334471
0.00461873489
0.00427543064
0.0039339347
0.00359473645
0.00325831147
0.00292512091
0.0025956111
0.00227021303
0.00194934196
0.001633397
0.00132276082
0.00101779927
0.000718861122
0.00042627782
0.000140363257
0.000138586405
0.000410292885
0.000674495899
0.000930953247
0.00117944086
0.00141975282
0.00165170134
0.00187511676
0.00208984739
0.00229575951
0.00249273714
0.00268068196
0.00285951306
0.00302916675
0.00318959634
0.0033407718
0.00348267957
0.00361532215
0.00373871781
0.00385290024
0.00395791813
0.00405383481
0.0041407278
0.00421868838
0.00428782118
0.00434824364
0.00440008558
0.0044434887
0.00447860605
0.00450560152
0.00452464934
0.00453593349
0.00453964723
0.00453599245
0.00452517922
0.00450742516
0.00448295488
0.00445199947
0.00441479585
0.00437158629
0.00432261777
0.00426814149
0.00420841222
0.00414368785
0.00407422874
0.00400029726
0.00392215718
0.00384007319
0.00375431037
0.00366513367
0.0035728074
0.00347759476
0.00337975737
0.00327955477
0.00317724399
0.00307307913
0.00296731089
0.00286018621
0.00275194785
0.00264283403
0.00253307803
0.00242290793
0.00231254618
0.00220220937
0.00209210792
0.0019824458
0.00187342027
0.00176522166
0.00165803316
0.00155203061
0.00144738233
0.00134424894
0.00124278326
0.00114313016
0.00104542646
0.000949800861
0.000856373867
0.000765257746
0.0006765565
0.000590365854
0.000506773266
0.00042585795
0.000347690918
0.000272335037
0.000199845108
0.000130267953
6.36425181e-05
7.63277915e-18
6.06360244e-05
0.000118249448
0.00017283147
0.000224380428
0.000272901604
0.000318407032
0.000360915288
0.000400451271
0.000437045976
0.000470736257
0.000501564581
0.000529578776
0.000554831771
0.000577381332
0.000597289788
0.000614623758
0.00062945387
0.000641854477
0.000651903371
0.000659681496
0.00066527266
0.000668763241
0.0006702419
0.00066979929
0.000667527772
0.000663521124
0.000657874259
0.000650682947
0.000642043539
0.000632052689
0.000620807096
0.000608403235
0.000594937105
0.000580503982
0.000565198171
0.000549112778
0.00053233948
0.000514968309
0.000497087441
0.000478782996
0.000460138849
0.000441236446
0.000422154638
0.000402969516
0.000383754263
0.000364579015
0.000345510734
0.00032661309
0.000307946355
0.000289567313
0.000271529171
0.000253881493
0.000236670141
0.000219937222
0.000203721059
0.00018805616
0.00017297321
0.000158499065
0.000144656762
0.000131465543
0.000118940881
0.000107094525
9.59345506e-05
8.54654244e-05
7.56880738e-05
6.65999704e-05
5.81952207e-05
5.04646662e-05
4.33959919e-05
3.69738435e-05
3.11799517e-05
2.59932649e-05
2.13900878e-05
1.73442275e-05
1.38271452e-05
1.08081136e-05
8.25438023e-06
6.13133416e-06
4.40267826e-06
3.03060449e-06
1.97597265e-06
1.19849185e-06
6.56904246e-07
3.09170473e-07
1.12656298e-07
2.43199855e-08
8.99842151e-10

shape_id 2
num_samples 1400
0.5
0
0
84
-0.5
0
0
85
0.5
0
0
85
-0.5
0
0
84
0.5
0
0
85
-0.5
0
0
84
0.5
0
0
85
-0.5
0
0
171
0.5
0
0
85
-0.5
0
0
85
0.5
0
0
84
-0.5
0
0
84
0.5
0
0
85
-0.5
0
0
85
0.5
0
0
84

shape_id 3
num_samples 3154
0
0
39
0.0019749
0.0015006
0.0010497
0.0006234
0.0002144
-0.0001919
-0.0006153
-0.0010762
-0.0015922
-0.0021711
0
0.0258411
0.0231428
0.019943
0.016585
0.0133693
0.0104487
0.0078584
0.0055595
0.0034704
0.0014834
-0.0005259
-0.0026774
-0.0050122
-0.0072509
-0.0096755
0
-0.1600822
-0.1509616
-0.126124
-0.0871909
-0.03754
0.0177716
0.072295
0.1187196
0.1496623
0.1587108
0.1416873
0.0980593
0.0323746
-0.0444807
-0.1145513
0
-0.079001
-0.0639137
-0.0481672
-0.0322047
-0.016373
-0.0007478
0.0147451
0.0301419
0.0456866
0
-0.1552544
-0.1284514
-0.064531
0.012006
0.0818097
0.1321542
0.1567235
0.154628
0.1290801
0.0859879
0.0326324
-0.0234691
-0.075455
-0.1177498
-0.1464365
-0.1594001
-0.156277
-0.1382568
-0.1077811
-0.0681819
-0.023301
0.0228783
0.0665618
0.1044187
0.1337863
0.1528047
0.160478
0.1566702
0.1420438
0.1179522
0.0862972
0.0493675
0.0096666
-0.0302555
-0.0679596
-0.1012541
-0.1283056
-0.1477219
0
-0.102118
-0.1018755
-0.0997564
-0.0944246
-0.0880951
-0.0804151
-0.0703068
-0.0573411
-0.0376726
-0.0057208
0.0287652
0.0520139
0.0660243
0.0760534
0.0842818
0.0919409
0.0991251
0.1030373
0.1035225
0.1029964
0.1024159
0.1026008
0.1006278
0.1021996
0.1027157
0
-0.0724098
-0.1001518
-0.12383
-0.1423691
-0.1548848
-0.1607284
-0.1595253
-0.1512039
-0.13601
-0.1145108
-0.0875819
-0.0563806
-0.0223043
0.0130658
0.0480321
0.0808586
0.1098555
0.1334671
0.1503577
0.1594933
0.1602113
0.1522773
0.1359202
0.1118475
0.0812314
0.0456712
0.0071246
-0.0321845
-0.0698843
-0.1035901
-0.1310539
-0.1503163
-0.1598561
-0.1587231
-0.1466462
-0.1241058
-0.0923603
-0.0534198
-0.0099614
0.0348158
0.0773927
0.1141842
0.1418292
0.1575024
0.1592226
0.1461314
0.1187106
0.0789067
0.0301326
-0.022882
-0.074411
-0.1182269
-0.1482654
-0.1594275
-0.1484615
-0.1148424
-0.0615278
0.0045644
0.0725496
0.1282838
0.1560918
0.1419776
0
-0.0840661
-0.0651651
-0.0422724
-0.0159221
0.0116438
0.0379691
0.0620656
0.0862395
0.1029483
0
0.0137169
-0.0779744
-0.1382901
-0.1576376
-0.1388884
-0.0918651
-0.0292739
0.036182
0.0936986
0.1354394
0.1569368
0.1569905
0.1372155
0.101378
0.0546382
0.0027956
-0.0483936
-0.0937786
-0.1292286
-0.1518929
-0.1603096
-0.1543825
-0.1352468
-0.1050534
-0.0667
-0.0235366
0.0209291
0.0633051
0.1005521
0.1301696
0.1503282
0.1599434
0.1586931
0.1469848
0.1258794
0.0969803
0.0623003
0.0241126
-0.0151998
-0.0532901
-0.0879811
-0.1173778
-0.1399575
-0.1546326
-0.1607859
-0.1582787
-0.1474329
-0.1289916
-0.10406
-0.0740326
-0.0405093
-0.0052091
0.0301199
0.0637843
0.0942229
0.1200733
0.1402262
0.153865
0.1604901
0.1599282
0.152327
0.1381354
0.1180737
0.0930911
0.0643188
0.0330152
0.0005101
-0.0318522
-0.0627674
-0.0910216
-0.1155363
-0.1354053
-0.149925
-0.1586132
-0.161221
-0.1577348
-0.1483678
-0.1335469
-0.1138887
-0.0901721
-0.063305
0
0.1036029
0.1036002
0.1035945
0.1035897
0.1035837
0.1035764
0.1035922
0.1035814
0.1035719
0.103559
0.1035481
0.1035377
0.1035309
0.1035585
0.1034522
0.1026517
0.1033438
-0.0393453
-0.0974991
-0.1019584
-0.1032978
-0.1035773
-0.1035593
-0.1035589
-0.1035672
-0.1035755
-0.1035819
-0.1035871
-0.1035913
-0.1035932
-0.1035945
-0.1035938
-0.1035901
-0.1035781
-0.1035576
0
-0.0350861
-0.0063805
0.0227562
0.0511986
0.0780531
0.1024127
0.123433
0.1403653
0.1525856
0.1596188
0.1611598
0.1570886
0.1474796
0.1326048
0.1129302
0.089104
0.061939
0.0323882
0.0015127
-0.0295527
-0.0596416
-0.087598
-0.1123211
-0.1328098
-0.1482048
-0.157827
-0.1612106
-0.1581287
-0.1486114
-0.1329529
-0.1117087
-0.0856822
-0.0558992
-0.0235734
0.00994
0.0431972
0.0747259
0.1030899
0.1269551
0.1451541
0.1567471
0.1610744
0.1578004
0.1469422
0.1288851
0.10438
0.074522
0.0407115
0.0045981
-0.031994
-0.0671519
-0.0989717
-0.1256603
-0.1456403
-0.1576477
-0.1608199
-0.1547675
-0.1396227
-0.1160613
-0.0852951
-0.0490283
-0.0093837
0.0312062
0.0701352
0.1047828
0.1326889
0.1517314
0.1602996
0.1574458
0.1430044
0.1176664
0.0829965
0.0413845
-0.0040725
-0.0497602
-0.0918012
-0.1263645
-0.1500094
-0.1600417
-0.1548505
-0.1341901
-0.0993712
-0.0533234
-0.0004959
0.0534256
0.1020011
0.1387045
0.1577525
0.1550283
0.1290133
0.0815962
0.0186013
-0.0501573
-0.1115132
-0.1505171
-0.1531967
-0.110832
0
0.1030388
0.0840775
0.0624568
0.0326827
-0.0029251
-0.0383739
-0.0663283
-0.0820334
-0.0922112
0
0.0853795
0.1460753
0.1533186
0.1162887
0.0520672
-0.0209466
-0.0868891
-0.1344115
-0.1573255
-0.1543269
-0.1281392
-0.0843529
-0.0301827
0.0267002
0.07915
0.1212837
0.1489514
0.1599465
0.1539895
0.1325262
0.098393
0.055403
0.0078984
-0.0396836
-0.0832004
-0.1191231
-0.1447689
-0.1584432
-0.1594879
-0.1482499
-0.1259756
-0.0946542
-0.0568202
-0.0153379
0.0268169
0.066766
0.1019108
0.1300843
0.1496613
0.1596278
0.159607
0.1498454
0.1311622
0.1048704
0.0726732
0.0365473
-0.0013834
-0.0389711
-0.0741642
-0.1051109
-0.1302493
-0.1483749
-0.1586853
-0.1608043
-0.1547806
-0.1410669
-0.1204806
-0.0941481
-0.0634381
-0.0298871
0.00488
0.0392278
0.0715862
0.1005188
0.1247819
0.1433726
0.1555633
0.1609236
0.159328
0.15095
0.1362444
0.115919
0.0908962
0.0622684
0.0312476
-0.0008859
-0.0328384
-0.0633521
-0.0912545
-0.1155004
-0.1352077
-0.1496866
-0.1584588
-0.1612696
-0.1580907
-0.1491139
-0.1347384
-0.1155226
-0.0922459
-0.0658418
-0.0371849
-0.0073372
0.0226512
0.0517456
0.078962
0.1033984
0.1242637
0.1409003
0.1528032
0.1596324
0.1612195
0.1575695
0.1488556
0.1354099
0.1177091
0.0963554
0.0720556
0.0455951
0.0178138
-0.0104229
-0.0382494
-0.0648274
0
-0.1035169
-0.1020591
-0.1026101
-0.1027397
-0.1027917
-0.1028062
-0.1026478
-0.1024962
-0.1022882
-0.1015265
-0.0994351
-0.0968111
-0.093628
-0.0895253
-0.083273
-0.0722922
-0.0534212
-0.0236971
0.0153922
0.0490516
0.0711064
0.083392
0.0897499
0.0935642
0.0963832
0.0991068
0.1020356
0.1030244
0.103511
0.1034345
0.1031419
0.1028321
0.1027641
0.1031291
0.101934
0.1028554
0.1030485
0
-0.0733755
-0.0963577
-0.1166877
-0.1337647
-0.1470717
-0.1561926
-0.1608257
-0.160795
-0.1560586
-0.1467124
-0.13299
-0.1152596
-0.0940152
-0.0698646
-0.0435141
-0.0157483
0.0125916
0.0406329
0.0674975
0.0923301
0.1143248
0.1327526
0.1469859
0.1565225
0.1610032
0.1602282
0.1541678
0.1429666
0.126944
0.1065872
0.0825398
0.055583
0.0266128
-0.0033878
-0.0333819
-0.0623122
-0.0891392
-0.1128781
-0.1326362
-0.1476479
-0.1573054
-0.1611873
-0.1590779
-0.1509822
-0.137132
-0.1179837
-0.0942076
-0.0666681
-0.0363958
-0.0045544
0.0275445
0.0588128
0.0877704
0.1132512
0.1341557
0.1495456
0.1586916
0.1611136
0.1566081
0.1452679
0.1274881
0.1039595
0.075648
0.0437616
0.0097042
-0.0249824
-0.0586849
-0.0897912
-0.1167685
-0.1382399
-0.1530576
-0.1603698
-0.1596752
-0.1508635
-0.1342373
-0.110516
-0.0808149
-0.0466047
-0.0096489
0.0280793
0.0644965
0.0975198
0.1251866
0.1457736
0.1579101
0.1606787
0.1536949
0.1371601
0.111882
0.0792581
0.0412207
0.0001415
-0.0412988
-0.080274
-0.113998
-0.1399244
-0.1559459
-0.1605799
-0.1531241
-0.1337686
-0.1036495
-0.0648317
-0.0202172
0.0266286
0.0717245
0.1109866
0.1405878
0.1573383
0.1590556
0.1448846
0.115533
0.0733753
0.0223998
-0.0320367
-0.0836479
-0.1258514
-0.1525566
-0.1590528
-0.1429011
-0.1047157
-0.0486836
0.0173356
0.0822994
0.1332079
0.1571723
0.1443558
0.0916944
0.0071381
-0.0861662
0
-0.1035792
-0.1033238
-0.0962768
-0.0302599
0.0915349
0.1005111
0.102837
0
-0.1248515
-0.1531627
-0.111795
-0.03302
0.0514074
0.1180142
0.1536065
0.154538
0.1246364
0.0726183
0.0095302
-0.0534563
-0.1067117
-0.1432232
-0.1590976
-0.1535739
-0.1286579
-0.0884995
-0.0386369
0.0147905
0.0657707
0.1090304
0.1404861
0.1575219
0.1590921
0.145669
0.1190605
0.0821322
0.0384702
-0.0079798
-0.0532663
-0.0937498
-0.1263656
-0.1488192
-0.1597036
-0.1585434
-0.1457658
-0.1226119
-0.0909963
-0.0533349
-0.012349
0.0291322
0.0683644
0.1028596
0.1305295
0.1497948
0.1596542
0.1597155
0.1501881
0.1318392
0.1059235
0.0740863
0.0382528
0.0005076
-0.0370275
-0.07231
-0.103483
-0.1289656
-0.1475233
-0.1583177
-0.1609324
-0.1553772
-0.1420703
-0.1218008
-0.0956771
-0.0650596
-0.0314873
0.0034026
0.0379546
0.0706131
0.0997853
0.1242863
0.1431042
0.1554586
0.1608989
0.1592867
0.1507919
0.135875
0.115258
0.0898859
0.0608804
0.0294875
-0.0029763
-0.0351804
-0.0658333
-0.0937331
-0.1178122
-0.1371752
-0.151128
-0.1592
-0.161154
-0.1569901
-0.1469379
-0.1314419
-0.11114
-0.0868331
-0.0594534
-0.0300258
0.0003705
0.0306419
0.05972
0.0865973
0.1103619
0.1302257
0.1455486
0.1558567
0.160854
0.1604282
0.1546498
0.1437656
0.1281858
0.1084672
0.0852919
0.0594416
0.031771
0.0031787
-0.0254226
-0.0531343
-0.0791002
-0.1025318
-0.1227313
-0.1391106
-0.1512073
-0.1586953
-0.1613922
-0.1592611
-0.1524096
-0.1410822
-0.1256511
-0.106603
-0.0845216
-0.0600697
-0.033968
-0.0069741
0.0201405
0.0466118
0.0717046
0.0947329
0.1150767
0.1321992
0.145659
0.1551202
0.1603598
0
-0.0043093
-0.0034198
-0.0026904
-0.0021115
-0.0016567
-0.0012994
-0.0010175
-0.0007934
-0.0006137
-0.0004678
-0.0003475
-0.0002462
-0.0001584
-7.96e-05
-5.6e-06
6.73e-05
0.0001429
0.0002249
0.0003176
0.0004258
0.0005552
0.0007129
0.0009073
0.001149
0.0014514
0.0018313
0.0023094
0.0029125
0.0036734
0.0046329
0.005841
0.0073571
0.0092492
0.0115897
0.0144431
0.0178433
0.0217496
0.0259753
0.0300992
0.0334219
0.0352341
0
0.1544762
0.1448704
0.1314368
0.1144998
0.0944813
0.0718907
0.0473134
0.021396
-0.0051701
-0.0316658
