# Pulseq sequence file
# Created by MATLAB mr toolbox

[VERSION]
major 1
minor 5
revision 0

[DEFINITIONS]
AdcRasterTime 1e-07 
BlockDurationRaster 1e-05 
FOV 0.192 0.192 0.15 
GradientRasterTime 1e-05 
MaxAdcSegmentLength 3704 
Name mreg_FOV 
RadiofrequencyRasterTime 1e-06 
ReceiverGainHigh 1 
TE 0.00161 0.0278 
TotalDuration 0.1 

# Format of blocks:
# NUM DUR RF  GX  GY  GZ  ADC  EXT
[BLOCKS]
1 151   1   0   0   1  0  0
2  10   0   0   0   2  0  0
3   0   0   0   0   0  0  1
4 5558   0   3   4   5  1  0
5   0   0   0   0   0  0  2
6 683   0   6   6   6  0  0
7 3598   0   0   0   0  0  0

# Format of RF events:
# id ampl. mag_id phase_id time_shape_id center delay freqPPM phasePPM freq phase use
# ..   Hz      ..       ..            ..     us    us     ppm  rad/MHz   Hz   rad  ..
# Field 'use' is the initial of: excitation refocusing inversion saturation preparation other undefined
[RF]
1      793.451 1 2 0 700 100 0 0 0 0 e

# Format of arbitrary gradients:
#   time_shape_id of 0 means default timing (stepping with grad_raster starting at 1/2 of grad_raster)
# id amplitude first last amp_shape_id time_shape_id delay
# ..      Hz/m  Hz/m Hz/m        ..         ..          us
[GRADIENTS]
3 -2.46611e+06            0            0 3 0 10
4 -2.42097e+06            0            0 4 0 10
5  -2.3779e+06            0            0 5 0 10

# Format of trapezoid gradients:
# id amplitude rise flat fall delay
# ..      Hz/m   us   us   us    us
[TRAP]
 1      95238.1  10 1400  10  90
 2 -1.34286e+06  50    0  50   0
 6 -1.61551e+06 640 5550 640   0

# Format of ADC events:
# id num dwell delay freqPPM phasePPM freq phase phase_id
# ..  ..    ns    us     ppm  rad/MHz   Hz   rad       ..
[ADC]
1 11112 5000 10 0 0 0 0 0

# Format of extension lists:
# id type ref next_id
# next_id of 0 terminates the list
# Extension list is followed by extension specifications
[EXTENSIONS]
1 1 1 0
2 1 2 0

# Extension specification for setting labels:
# id set labelstring
extension LABELSET 1
1 1 NOPOS
2 0 NOPOS

# Sequence Shapes
[SHAPES]

shape_id 1
num_samples 1400
8.99842151e-10
2.43199855e-08
1.12656298e-07
3.09170473e-07
6.56904246e-07
1.19849185e-06
1.97597265e-06
3.03060449e-06
4.40267826e-06
6.13133416e-06
8.25438023e-06
1.08081136e-05
1.38271452e-05
1.73442275e-05
2.13900878e-05
2.59932649e-05
3.11799517e-05
3.69738435e-05
4.33959919e-05
5.04646662e-05
5.81952207e-05
6.65999704e-05
7.56880738e-05
8.54654244e-05
9.59345506e-05
0.000107094525
0.000118940881
0.000131465543
0.000144656762
0.000158499065
0.00017297321
0.00018805616
0.000203721059
0.000219937222
0.000236670141
0.000253881493
0.000271529171
0.000289567313
0.000307946355
0.00032661309
0.000345510734
0.000364579015
0.000383754263
0.000402969516
0.000422154638
0.000441236446
0.000460138849
0.000478782996
0.000497087441
0.000514968309
0.00053233948
0.000549112778
0.000565198171
0.000580503982
0.000594937105
0.000608403235
0.000620807096
0.000632052689
0.000642043539
0.000650682947
0.000657874259
0.000663521124
0.000667527772
0.00066979929
0.0006702419
0.000668763241
0.00066527266
0.000659681496
0.000651903371
0.000641854477
0.00062945387
0.000614623758
0.000597289788
0.000577381332
0.000554831771
0.000529578776
0.000501564581
0.000470736257
0.000437045976
0.000400451271
0.000360915288
0.000318407032
0.000272901604
0.000224380428
0.00017283147
0.000118249448
6.06360244e-05
1.48373487e-18
6.36425181e-05
0.000130267953
0.000199845108
0.000272335037
0.000347690918
0.00042585795
0.000506773266
0.000590365854
0.0006765565
0.000765257746
0.000856373867
0.000949800861
0.00104542646
0.00114313016
0.00124278326
0.00134424894
0.00144738233
0.00155203061
0.00165803316
0.00176522166
0.00187342027
0.0019824458
0.00209210792
0.00220220937
0.00231254618
0.00242290793
0.00253307803
0.00264283403
0.00275194785
0.00286018621
0.00296731089
0.00307307913
0.00317724399
0.00327955477
0.00337975737
0.00347759476
0.0035728074
0.00366513367
0.00375431037
0.00384007319
0.00392215718
0.00400029726
0.00407422874
0.00414368785
0.00420841222
0.00426814149
0.00432261777
0.00437158629
0.00441479585
0.00445199947
0.00448295488
0.00450742516
0.00452517922
0.00453599245
0.00453964723
0.00453593349
0.00452464934
0.00450560152
0.00447860605
0.0044434887
0.00440008558
0.00434824364
0.00428782118
0.00421868838
0.0041407278
0.00405383481
0.00395791813
0.00385290024
0.00373871781
0.00361532215
0.00348267957
0.0033407718
0.00318959634
0.00302916675
0.00285951306
0.00268068196
0.00249273714
0.00229575951
0.00208984739
0.00187511676
0.00165170134
0.00141975282
0.00117944086
0.000930953247
0.000674495899
0.000410292885
0.000138586405
0.000140363257
0.00042627782
0.000718861122
0.00101779927
0.00132276082
0.001633397
0.00194934196
0.00227021303
0.0025956111
0.00292512091
0.00325831147
0.00359473645
0.0039339347
0.00427543064
0.00461873489
0.00496334471
0.00530874468
0.00565440727
0.0059997935
0.00634435361
0.00668752778
0.00702874686
0.00736743315
0.00770300119
0.00803485856
0.00836240675
0.00868504203
0.00900215634
0.00931313821
0.00961737368
0.00991424729
0.0102031431
0.0104834454
0.0107545403
0.0110158162
0.0112666649
0.0115064831
0.011734673
0.0119506433
0.0121538109
0.0123436012
0.0125194498
0.0126808033
0.0128271202
0.0129578725
0.0130725463
0.0131706432
0.013251681
0.0133151954
0.0133607402
0.013387889
0.013396236
0.0133853969
0.0133550099
0.0133047371
0.0132342646
0.0131433042
0.013031594
0.0128988991
0.0127450128
0.012569757
0.0123729831
0.0121545732
0.01191444
0.0116525279
0.0113688139
0.0110633074
0.0107360517
0.0103871235
0.0100166342
0.00962472977
0.00921159134
0.00877743539
0.00832251409
0.00784711542
0.00735156339
0.00683621805
0.00630147563
0.00574776843
0.0051755648
0.00458536899
0.00397772096
0.00335319616
0.00271240518
0.00205599341
0.00138464062
0.000699060483
5.77812473e-17
0.000711761069
0.00143541088
0.00217010623
0.00291497332
0.00366910862
0.00443157974
0.00520142638
0.00597766138
0.00675927173
0.00754521975
0.00833444422
0.00912586162
0.00991836742
0.0107108374
0.0115021291
0.012291083
0.0130765244
0.0138572646
0.0146321026
0.0153998266
0.016159216
0.0169090424
0.0176480721
0.0183750673
0.0190887879
0.0197879937
0.0204714459
0.021137909
0.0217861528
0.0224149542
0.0230230992
0.0236093846
0.0241726203
0.0247116309
0.0252252578
0.0257123614
0.0261718226
0.026602545
0.0270034569
0.0273735129
0.0277116964
0.0280170209
0.0282885324
0.0285253108
0.0287264722
0.0288911703
0.0290185984
0.0291079913
0.0291586267
0.0291698269
0.0291409607
0.0290714449
0.0289607456
0.0288083799
0.0286139172
0.028376981
0.0280972494
0.0277744571
0.0274083963
0.0269989178
0.026545932
0.02604941
0.0255093845
0.0249259505
0.0242992662
0.0236295535
0.0229170987
0.022162253
0.0213654327
0.0205271198
0.0196478622
0.0187282734
0.0177690333
0.0167708874
0.015734647
0.0146611892
0.013551456
0.0124064543
0.0112272551
0.010014993
0.00877086548
0.00749613195
0.00619211289
0.00486018881
0.00350179909
0.00211844074
0.000711667092
0.00071691363
0.00216563986
0.00363279831
0.00511662567
0.00661531042
0.00812699474
0.00964977652
0.0111817114
0.012720815
0.0142650651
0.0158124039
0.0173607408
0.0189079544
0.0204518953
0.0219903889
0.0235212378
0.0250422248
0.0265511155
0.0280456615
0.0295236033
0.0309826728
0.0324205972
0.0338351014
0.0352239116
0.036584758
0.0379153786
0.039213522
0.0404769508
0.041703445
0.0428908051
0.0440368556
0.0451394484
0.0461964657
0.0472058239
0.0481654766
0.0490734178
0.0499276857
0.0507263654
0.0514675924
0.0521495562
0.0527705026
0.0533287378
0.0538226311
0.0542506176
0.054611202
0.0549029609
0.0551245458
0.0552746864
0.0553521927
0.055355958
0.0552849614
0.0551382704
0.0549150434
0.0546145316
0.0542360816
0.0537791377
0.0532432431
0.0526280427
0.0519332845
0.0511588212
0.0503046117
0.0493707228
0.0483573303
0.0472647203
0.0460932899
0.0448435483
0.0435161178
0.042111734
0.0406312462
0.0390756182
0.037445928
0.035743368
0.0339692449
0.0321249791
0.0302121047
0.0282322685
0.0261872293
0.0240788572
0.0219091321
0.0196801428
0.0173940856
0.0150532623
0.0126600788
0.0102170434
0.00772676421
0.00519194733
0.00261539438
1.03358224e-16
0.00265125088
0.00533528581
0.00804894781
0.0107889985
0.0135521214
0.0163349252
0.0191339476
0.0219456585
0.0247664643
0.0275927116
0.0304206914
0.033246643
0.0360667588
0.0388771882
0.0416740423
0.0444533988
0.0472113063
0.0499437894
0.0526468536
0.05531649
0.0579486808
0.060539404
0.063084639
0.0655803716
0.0680225994
0.0704073371
0.0727306221
0.0749885195
0.0771771281
0.0792925856
0.0813310741
0.0832888255
0.0851621274
0.0869473281
0.0886408424
0.0902391571
0.0917388361
0.0931365262
0.0944289622
0.0956129723
0.0966854832
0.0976435257
0.0984842393
0.0992048775
0.0998028129
0.100275542
0.100620689
0.100836012
0.100919408
0.100868913
0.100682713
0.100359142
0.0998966907
0.0992940066
0.0985499004
0.0976633485
0.0966334963
0.0954596619
0.0941413388
0.0926781991
0.0910700958
0.0893170655
0.0874193309
0.0853773025
0.0831915809
0.0808629581
0.0783924195
0.0757811445
0.0730305082
0.0701420818
0.0671176332
0.0639591278
0.0606687279
0.0572487933
0.0537018806
0.0500307426
0.0462383277
0.0423277786
0.0383024313
0.0341658132
0.0299216417
0.0255738219
0.0211264444
0.0165837827
0.011950291
0.00723060041
0.00242951625
0.00244798552
0.007396762
0.0124115073
0.0174867566
0.0226168905
0.02779614
0.0330185906
0.038278188
0.0435687429
0.0488839367
0.054217327
0.0595623535
0.0649123438
0.0702605202
0.0756000055
0.0809238296
0.0862249366
0.0914961915
0.0967303873
0.101920252
0.107058456
0.112137619
0.117150321
0.122089103
0.126946482
0.131714954
0.136387007
0.140955123
0.145411789
0.149749508
0.153960803
0.158038227
0.161974371
0.165761874
0.169393429
0.172861793
0.176159795
0.179280345
0.18221644
0.184961176
0.187507754
0.189849488
0.191979815
0.193892301
0.195580651
0.197038716
0.198260502
0.199240174
0.199972069
0.2004507
0.200670765
0.200627154
0.200314953
0.199729459
0.198866175
0.197720829
0.19628937
0.194567982
0.192553084
0.19024134
0.187629663
0.18471522
0.181495436
0.177968004
0.174130883
0.169982305
0.165520781
0.160745104
0.155654348
0.150247879
0.144525351
0.138486715
0.132132215
0.125462394
0.118478096
0.111180466
0.103570952
0.0956513049
0.0874235797
0.0788901365
0.0700536392
0.0609170559
0.0514836577
0.0417570179
0.0317410106
0.0214398092
0.0108578839
2.3447056e-16
0.0111287853
0.0225231254
0.034177388
0.0460856583
0.0582417433
0.0706391758
0.0832712186
0.0961308702
0.109210869
0.122503699
0.136001597
0.149696555
0.16358033
0.177644449
0.191880216
0.206278719
0.220830839
0.235527254
0.250358449
0.265314725
0.280386205
0.295562845
0.310834441
0.326190637
0.341620936
0.35711471
0.372661207
0.388249561
0.403868802
0.41950787
0.435155616
0.450800822
0.466432204
0.482038427
0.497608112
0.513129849
0.528592206
0.543983742
0.559293014
0.574508592
0.589619065
0.604613057
0.619479233
0.634206313
0.648783081
0.663198398
0.677441208
0.691500554
0.705365584
0.719025567
0.732469895
0.745688103
0.758669871
0.771405039
0.783883612
0.796095778
0.808031908
0.819682572
0.831038546
0.842090819
0.852830607
0.863249355
0.873338752
0.883090736
0.892497498
0.901551499
0.910245469
0.918572418
0.926525642
0.934098731
0.941285572
0.94808036
0.9544776
0.960472111
0.966059038
0.97123385
0.975992346
0.980330663
0.984245274
0.987732996
0.990790991
0.993416772
0.995608198
0.997363486
0.998681206
0.999560282
1
1
0.999560282
0.998681206
0.997363486
0.995608198
0.993416772
0.990790991
0.987732996
0.984245274
0.980330663
0.975992346
0.97123385
0.966059038
0.960472111
0.9544776
0.94808036
0.941285572
0.934098731
0.926525642
0.918572418
0.910245469
0.901551499
0.892497498
0.883090736
0.873338752
0.863249355
0.852830607
0.842090819
0.831038546
0.819682572
0.808031908
0.796095778
0.783883612
0.771405039
0.758669871
0.745688103
0.732469895
0.719025567
0.705365584
0.691500554
0.677441208
0.663198398
0.648783081
0.634206313
0.619479233
0.604613057
0.589619065
0.574508592
0.559293014
0.543983742
0.528592206
0.513129849
0.497608112
0.482038427
0.466432204
0.450800822
0.435155616
0.41950787
0.403868802
0.388249561
0.372661207
0.35711471
0.341620936
0.326190637
0.310834441
0.295562845
0.280386205
0.265314725
0.250358449
0.235527254
0.220830839
0.206278719
0.191880216
0.177644449
0.16358033
0.149696555
0.136001597
0.122503699
0.109210869
0.0961308702
0.0832712186
0.0706391758
0.0582417433
0.0460856583
0.034177388
0.0225231254
0.0111287853
2.3447056e-16
0.0108578839
0.0214398092
0.0317410106
0.0417570179
0.0514836577
0.0609170559
0.0700536392
0.0788901365
0.0874235797
0.0956513049
0.103570952
0.111180466
0.118478096
0.125462394
0.132132215
0.138486715
0.144525351
0.150247879
0.155654348
0.160745104
0.165520781
0.169982305
0.174130883
0.177968004
0.181495436
0.18471522
0.187629663
0.19024134
0.192553084
0.194567982
0.19628937
0.197720829
0.198866175
0.199729459
0.200314953
0.200627154
0.200670765
0.2004507
0.199972069
0.199240174
0.198260502
0.197038716
0.195580651
0.193892301
0.191979815
0.189849488
0.187507754
0.184961176
0.18221644
0.179280345
0.176159795
0.172861793
0.169393429
0.165761874
0.161974371
0.158038227
0.153960803
0.149749508
0.145411789
0.140955123
0.136387007
0.131714954
0.126946482
0.122089103
0.117150321
0.112137619
0.107058456
0.101920252
0.0967303873
0.0914961915
0.0862249366
0.0809238296
0.0756000055
0.0702605202
0.0649123438
0.0595623535
0.054217327
0.0488839367
0.0435687429
0.038278188
0.0330185906
0.02779614
0.0226168905
0.0174867566
0.0124115073
0.007396762
0.00244798552
0.00242951625
0.00723060041
0.011950291
0.0165837827
0.0211264444
0.0255738219
0.0299216417
0.0341658132
0.0383024313
0.0423277786
0.0462383277
0.0500307426
0.0537018806
0.0572487933
0.0606687279
0.0639591278
0.0671176332
0.0701420818
0.0730305082
0.0757811445
0.0783924195
0.0808629581
0.0831915809
0.0853773025
0.0874193309
0.0893170655
0.0910700958
0.0926781991
0.0941413388
0.0954596619
0.0966334963
0.0976633485
0.0985499004
0.0992940066
0.0998966907
0.100359142
0.100682713
0.100868913
0.100919408
0.100836012
0.100620689
0.100275542
0.0998028129
0.0992048775
0.0984842393
0.0976435257
0.0966854832
0.0956129723
0.0944289622
0.0931365262
0.0917388361
0.0902391571
0.0886408424
0.0869473281
0.0851621274
0.0832888255
0.0813310741
0.0792925856
0.0771771281
0.0749885195
0.0727306221
0.0704073371
0.0680225994
0.0655803716
0.063084639
0.060539404
0.0579486808
0.05531649
0.0526468536
0.0499437894
0.0472113063
0.0444533988
0.0416740423
0.0388771882
0.0360667588
0.033246643
0.0304206914
0.0275927116
0.0247664643
0.0219456585
0.0191339476
0.0163349252
0.0135521214
0.0107889985
0.00804894781
0.00533528581
0.00265125088
1.57260563e-16
0.00261539438
0.00519194733
0.00772676421
0.0102170434
0.0126600788
0.0150532623
0.0173940856
0.0196801428
0.0219091321
0.0240788572
0.0261872293
0.0282322685
0.0302121047
0.0321249791
0.0339692449
0.035743368
0.037445928
0.0390756182
0.0406312462
0.042111734
0.0435161178
0.0448435483
0.0460932899
0.0472647203
0.0483573303
0.0493707228
0.0503046117
0.0511588212
0.0519332845
0.0526280427
0.0532432431
0.0537791377
0.0542360816
0.0546145316
0.0549150434
0.0551382704
0.0552849614
0.055355958
0.0553521927
0.0552746864
0.0551245458
0.0549029609
0.054611202
0.0542506176
0.0538226311
0.0533287378
0.0527705026
0.0521495562
0.0514675924
0.0507263654
0.0499276857
0.0490734178
0.0481654766
0.0472058239
0.0461964657
0.0451394484
0.0440368556
0.0428908051
0.041703445
0.0404769508
0.039213522
0.0379153786
0.036584758
0.0352239116
0.0338351014
0.0324205972
0.0309826728
0.0295236033
0.0280456615
0.0265511155
0.0250422248
0.0235212378
0.0219903889
0.0204518953
0.0189079544
0.0173607408
0.0158124039
0.0142650651
0.012720815
0.0111817114
0.00964977652
0.00812699474
0.00661531042
0.00511662567
0.00363279831
0.00216563986
0.00071691363
0.000711667092
0.00211844074
0.00350179909
0.00486018881
0.00619211289
0.00749613195
0.00877086548
0.010014993
0.0112272551
0.0124064543
0.013551456
0.0146611892
0.015734647
0.0167708874
0.0177690333
0.0187282734
0.0196478622
0.0205271198
0.0213654327
0.022162253
0.0229170987
0.0236295535
0.0242992662
0.0249259505
0.0255093845
0.02604941
0.026545932
0.0269989178
0.0274083963
0.0277744571
0.0280972494
0.028376981
0.0286139172
0.0288083799
0.0289607456
0.0290714449
0.0291409607
0.0291698269
0.0291586267
0.0291079913
0.0290185984
0.0288911703
0.0287264722
0.0285253108
0.0282885324
0.0280170209
0.0277116964
0.0273735129
0.0270034569
0.026602545
0.0261718226
0.0257123614
0.0252252578
0.0247116309
0.0241726203
0.0236093846
0.0230230992
0.0224149542
0.0217861528
0.021137909
0.0204714459
0.0197879937
0.0190887879
0.0183750673
0.0176480721
0.0169090424
0.016159216
0.0153998266
0.0146321026
0.0138572646
0.0130765244
0.012291083
0.0115021291
0.0107108374
0.00991836742
0.00912586162
0.00833444422
0.00754521975
0.00675927173
0.00597766138
0.00520142638
0.00443157974
0.00366910862
0.00291497332
0.00217010623
0.00143541088
0.000711761069
5.77812473e-17
0.000699060483
0.00138464062
0.00205599341
0.00271240518
0.00335319616
0.00397772096
0.00458536899
0.0051755648
0.00574776843
0.00630147563
0.00683621805
0.00735156339
0.00784711542
0.00832251409
0.00877743539
0.00921159134
0.00962472977
0.0100166342
0.0103871235
0.0107360517
0.0110633074
0.0113688139
0.0116525279
0.01191444
0.0121545732
0.0123729831
0.012569757
0.0127450128
0.0128988991
0.013031594
0.0131433042
0.0132342646
0.0133047371
0.0133550099
0.0133853969
0.013396236
0.013387889
0.0133607402
0.0133151954
0.013251681
0.0131706432
0.0130725463
0.0129578725
0.0128271202
0.0126808033
0.0125194498
0.0123436012
0.0121538109
0.0119506433
0.011734673
0.0115064831
0.0112666649
0.0110158162
0.0107545403
0.0104834454
0.0102031431
0.00991424729
0.00961737368
0.00931313821
0.00900215634
0.00868504203
0.00836240675
0.00803485856
0.00770300119
0.00736743315
0.00702874686
0.00668752778
0.00634435361
0.0059997935
0.00565440727
0.00530874468
0.00496334471
0.00461873489
0.00427543064
0.0039339347
0.00359473645
0.00325831147
0.00292512091
0.0025956111
0.00227021303
0.00194934196
0.001633397
0.00132276082
0.00101779927
0.000718861122
0.00042627782
0.000140363257
0.000138586405
0.000410292885
0.000674495899
0.000930953247
0.00117944086
0.00141975282
0.00165170134
0.00187511676
0.00208984739
0.00229575951
0.00249273714
0.00268068196
0.00285951306
0.00302916675
0.00318959634
0.0033407718
0.00348267957
0.00361532215
0.00373871781
0.00385290024
0.00395791813
0.00405383481
0.0041407278
0.00421868838
0.00428782118
0.00434824364
0.00440008558
0.0044434887
0.00447860605
0.00450560152
0.00452464934
0.00453593349
0.00453964723
0.00453599245
0.00452517922
0.00450742516
0.00448295488
0.00445199947
0.00441479585
0.00437158629
0.00432261777
0.00426814149
0.00420841222
0.00414368785
0.00407422874
0.00400029726
0.00392215718
0.00384007319
0.00375431037
0.00366513367
0.0035728074
0.00347759476
0.00337975737
0.00327955477
0.00317724399
0.00307307913
0.00296731089
0.00286018621
0.00275194785
0.00264283403
0.00253307803
0.00242290793
0.00231254618
0.00220220937
0.00209210792
0.0019824458
0.00187342027
0.00176522166
0.00165803316
0.00155203061
0.00144738233
0.00134424894
0.00124278326
0.00114313016
0.00104542646
0.000949800861
0.000856373867
0.000765257746
0.0006765565
0.000590365854
0.000506773266
0.00042585795
0.000347690918
0.000272335037
0.000199845108
0.000130267953
6.36425181e-05
7.63277915e-18
6.06360244e-05
0.000118249448
0.00017283147
0.000224380428
0.000272901604
0.000318407032
0.000360915288
0.000400451271
0.000437045976
0.000470736257
0.000501564581
0.000529578776
0.000554831771
0.000577381332
0.000597289788
0.000614623758
0.00062945387
0.000641854477
0.000651903371
0.000659681496
0.00066527266
0.000668763241
0.0006702419
0.00066979929
0.000667527772
0.000663521124
0.000657874259
0.000650682947
0.000642043539
0.000632052689
0.000620807096
0.000608403235
0.000594937105
0.000580503982
0.000565198171
0.000549112778
0.00053233948
0.000514968309
0.000497087441
0.000478782996
0.000460138849
0.000441236446
0.000422154638
0.000402969516
0.000383754263
0.000364579015
0.000345510734
0.00032661309
0.000307946355
0.000289567313
0.000271529171
0.000253881493
0.000236670141
0.000219937222
0.000203721059
0.00018805616
0.00017297321
0.000158499065
0.000144656762
0.000131465543
0.000118940881
0.000107094525
9.59345506e-05
8.54654244e-05
7.56880738e-05
6.65999704e-05
5.81952207e-05
5.04646662e-05
4.33959919e-05
3.69738435e-05
3.11799517e-05
2.59932649e-05
2.13900878e-05
1.73442275e-05
1.38271452e-05
1.08081136e-05
8.25438023e-06
6.13133416e-06
4.40267826e-06
3.03060449e-06
1.97597265e-06
1.19849185e-06
6.56904246e-07
3.09170473e-07
1.12656298e-07
2.43199855e-08
8.99842151e-10

shape_id 2
num_samples 1400
0.5
0
0
84
-0.5
0
0
85
0.5
0
0
85
-0.5
0
0
84
0.5
0
0
85
-0.5
0
0
84
0.5
0
0
85
-0.5
0
0
171
0.5
0
0
85
-0.5
0
0
85
0.5
0
0
84
-0.5
0
0
84
0.5
0
0
85
-0.5
0
0
85
0.5
0
0
84

shape_id 3
num_samples 5557
0
0
39
0.0093745
0.006575
0.0040688
0.0017798
-0.0004044
-0.0026075
-0.0049538
-0.0075632
-0.010541
-0.0139572
-0.0178084
-0.0219641
-0.0261229
-0.0299034
-0.0329599
0
0.1476838
0.1335883
0.0700833
-0.0304666
-0.1224949
0
-0.062727
-0.0445821
-0.025999
0
0.107858
0.1335786
0.0553654
0
-0.0231635
-0.0217657
-0.0195098
-0.0168138
-0.0141016
-0.0116297
-0.0095103
-0.0077675
-0.0063812
-0.0053142
-0.0045268
-0.0039848
-0.0036615
-0.003538
-0.003601
-0.0038369
-0.0042175
-0.0046678
-0.0049903
-0.0046925
-0.0036643
0
-0.1518896
-0.1429542
-0.124537
-0.0976333
-0.0638573
-0.0253679
0.0152473
0.0551291
0.0913365
0.1210585
0.1418353
0.1517734
0.1497371
0.1354965
0.1098203
0.0744912
0.0322394
-0.0134157
-0.0584122
-0.0984725
-0.1294921
-0.1479611
-0.1513867
-0.1386688
-0.1103854
-0.0689378
-0.0185119
0.0351797
0.0853915
0.1250718
0.1477864
0.1487679
0.1259816
0.0810515
0.0198548
-0.0474406
-0.1071475
-0.143889
-0.1437358
-0.0988884
0
0.0927549
0.0719029
0.0500908
0.0277716
0.0053555
-0.0169467
-0.0389901
-0.0606163
-0.0820549
0
0.1164943
0.1478476
0.1249225
0.0658232
-0.0076809
-0.0762492
-0.1259634
-0.1492975
-0.1447612
-0.1157455
-0.0689811
-0.0129208
0.043732
0.0932132
0.1295334
0.1489483
0.1500894
0.1338108
0.1028231
0.061189
0.0137565
-0.0344076
-0.078531
-0.1145566
-0.1394475
-0.151367
-0.1497349
-0.1351704
-0.109344
-0.0747587
-0.0344863
0.0081145
0.0496759
0.0870746
0.1176466
0.1393483
0.1508635
0.1516493
0.1419266
0.1226199
0.0952552
0.061826
0.02464
-0.0138448
-0.0511819
-0.0850846
-0.1135586
-0.1350051
-0.1482969
-0.152821
-0.1484899
-0.1357224
-0.1153975
-0.0887855
-0.0574612
-0.0232068
0.0120925
0.0465513
0.0783831
0.1059878
0.128036
0.1434527
0
0.0147754
0.0147524
0.0137148
0.0120696
0.0102369
0.0084806
0.006929
0.0056244
0.0045634
0.003723
0.0030743
0.0025894
0.0022452
0.0020239
0.0019133
0.0019077
0.0020064
0.0022151
0.0025451
0.0030153
0.0036515
0.004488
0.0055692
0.0069483
0.0086875
0.0108528
0.0135023
0.0166638
0.0202903
0.0241918
0.0279472
0.0308644
0.0322479
0
0.1438535
0.1306062
0.1120966
0.0890081
0.0622227
0.0327911
0.0018935
-0.0292051
-0.0592052
-0.0868274
-0.1108662
-0.1302445
-0.1440636
-0.1516482
-0.1525824
-0.1467366
-0.1342819
-0.115692
-0.091732
-0.0634317
-0.0320471
0.0009908
0.0341379
0.0658076
0.0944442
0.1186018
0.1370181
0.1486844
0.1529055
0.1493471
0.1380662
0.1195235
0.0945751
0.0644342
0.0307271
-0.0049703
-0.0405798
-0.0741134
-0.1036484
-0.1274155
-0.1439232
-0.1520575
-0.1511662
-0.1411201
-0.1223458
-0.0958271
-0.0630712
-0.0260388
0.0129578
0.0513883
0.0866614
0.1162964
0.1381012
0.1503415
0.1518935
0.1423613
0.1221534
0.0925038
0.0554317
0.013639
-0.0296583
-0.0709534
-0.106719
-0.1337052
-0.1492434
-0.1515323
-0.1398757
-0.1148452
-0.0783418
-0.0335359
0.015328
0.0632622
0.1049918
0.1355075
0.1506717
0.1478207
0.1262865
0.0877638
0.0364326
-0.0212299
-0.0770088
-0.1218996
-0.1474161
-0.1471696
-0.1185455
-0.0642217
0.0068253
0.0792808
0.1329697
0.1465498
0.1044181
0
-0.0998584
-0.0993172
-0.0962293
-0.0091025
0.0972887
0.0999315
0.1001191
0
0.0348307
-0.0699347
-0.135101
-0.1460433
-0.1103338
-0.045807
0.0273773
0.0916856
0.134856
0.1507817
0.1391454
0.1042616
0.0535266
-0.0042124
-0.0601364
-0.1066356
-0.1381168
-0.1514246
-0.1459039
-0.1231708
-0.0866646
-0.0410714
0.0083049
0.0561508
0.0976749
0.1290264
0.1475758
0.1520516
0.1425417
0.1203749
0.0879077
0.0482475
0.0049382
-0.0383581
-0.0781623
-0.1114369
-0.1357903
-0.1496154
-0.1521598
-0.1435277
-0.1246222
-0.0970344
-0.0628951
-0.0246987
0.0148831
0.053188
0.0877357
0.1163777
0.1374169
0.1496912
0.1526197
0.1462106
0.1310331
0.1081099
0.0790377
0.0455726
0.0096781
-0.0265556
-0.0610985
-0.0920726
-0.117849
-0.1371239
-0.148977
-0.1529036
-0.1488263
-0.1370822
-0.1183911
-0.093805
-0.0646438
-0.0324207
0.0012386
0.0346783
0.0662931
0.0946027
0.1183174
0.1363923
0.1480668
0.1528917
0.1507385
0.1417966
0.1265535
0.1057661
0.0804176
0.0516698
0.0208061
-0.0108249
-0.0418705
-0.0710293
-0.097105
-0.1190522
-0.1360162
-0.1473618
-0.1526935
-0.1518648
-0.1449777
-0.1323723
-0.1146065
-0.0924303
-0.0667498
-0.0385908
-0.0090547
0.0207238
0.0496206
0.0765638
0.1005724
0.1207905
0.1365148
0.1472172
0.1525606
0.1524046
0.1468084
0.1360224
0.120476
0.1007584
0.0775949
0
-0.0992215
-0.0986379
-0.0967826
-0.0989456
-0.0986099
-0.0987823
-0.0991041
-0.0991969
-0.0986467
-0.0953143
-0.0894662
-0.0831545
-0.0760512
-0.0675997
-0.057697
-0.04321
-0.0223042
0.0040696
0.0292164
0.0476331
0.0602642
0.0703095
0.078677
0.0856746
0.0909784
0.0943394
0.0959705
0.0972972
0.0986654
0.0984969
0.0981651
0.0976047
0.1000338
0
0.1028357
0.0810888
0.0567108
0.0304578
0.0031569
-0.0243201
-0.0510831
-0.0762534
-0.0989915
-0.1185269
-0.1341836
-0.1454059
-0.1517787
-0.153044
-0.1491143
-0.1400775
-0.1261986
-0.1079142
-0.0858201
-0.060655
-0.0332772
-0.0046361
0.0242583
0.0523716
0.0786806
0.1022117
0.1220771
0.1375092
0.1478924
0.152789
0.1519601
0.1453796
0.133239
0.1159474
0.0941186
0.0685544
0.0402164
0.0101929
-0.0203414
-0.0501701
-0.0780828
-0.102925
-0.1236455
-0.1393437
-0.1493101
-0.1530616
-0.1503676
-0.1412669
-0.1260737
-0.1053716
-0.0799957
-0.0510033
-0.019634
0.0127411
0.044676
0.0747143
0.1014545
0.1236173
0.1401079
0.1500738
0.1529533
0.1485107
0.136859
0.1184661
0.0941426
0.0650145
0.032476
-0.0018702
-0.036289
-0.0689969
-0.0982542
-0.1224578
-0.140232
-0.1505114
-0.1526113
-0.146279
-0.1317264
-0.109636
-0.0811407
-0.0477785
-0.0114179
0.0258372
0.0617635
0.0941485
0.120926
0.140313
0.1509349
0.1519614
0.1430574
0.1246332
0.0977188
0.0639579
0.0255287
-0.0149796
-0.0547285
-0.0908193
-0.1205034
-0.1413948
-0.1516735
-0.1502607
-0.1369501
-0.1124821
-0.0785458
-0.0377048
0.0067596
0.0510791
0.0912962
0.1236065
0.1447239
0.1522334
0.1449008
0.1228992
0.0879215
0.0431473
-0.0069518
-0.0569758
-0.1011131
-0.1337817
-0.1503392
-0.1477879
-0.1253852
-0.0850609
-0.0315372
0.027933
0.0842702
0.1277267
0.1494443
0.1432761
0.1076317
0.0470096
-0.0272352
-0.097422
-0.141978
-0.1404393
0
0.043558
0.0319628
0.0201546
0.0082607
-0.0036238
-0.0154704
-0.0272439
-0.0389277
-0.0506835
0
0.1229319
0.1465576
0.1114609
0.0410607
-0.0381297
-0.1040913
-0.1427659
-0.1487293
-0.1240771
-0.0763361
-0.0160402
0.0455743
0.0984536
0.1350391
0.1509723
0.1452345
0.1198285
0.0791327
0.0290666
-0.0237989
-0.07308
-0.1132816
-0.140311
-0.1517788
-0.1470877
-0.1273319
-0.09504
-0.0538113
-0.0078872
0.0382911
0.0804997
0.1150902
0.1392651
0.151257
0.1504055
0.1371388
0.1128687
0.0798177
0.0407963
-0.0010463
-0.042479
-0.0804318
-0.1122108
-0.13567
-0.1493262
-0.1524268
-0.1450409
-0.1278645
-0.1022482
-0.0700537
-0.0335072
0.0049598
0.0428726
0.0778707
0.1078469
0.1310648
0.1462476
0.1526338
0.1500017
0.1386589
0.1194052
0.0934667
0.062411
0.0280477
-0.0076811
-0.0428093
-0.0754553
-0.103917
-0.1267566
-0.1428648
-0.1515079
-0.1523515
-0.1454648
-0.1313024
-0.1106708
-0.0846758
-0.0546601
-0.0221302
0.0113204
0.0440897
0.0746421
0.1015795
0.1236999
0.1400484
0.1499521
0.1530429
0.1492655
0.1388703
0.1223941
0.1006291
0.0745812
0.0454207
0.014429
-0.0170598
-0.0477153
-0.0762671
-0.1015551
-0.1225744
-0.1385127
-0.1487783
-0.1530179
-0.1511254
-0.1432399
-0.1297339
-0.1111938
-0.0883915
-0.0622502
-0.0338063
-0.0041661
0.0255366
0.0541842
0.0807167
0.1041692
0.1237061
0.1386482
0.1484942
0.152935
0.1518607
0.1453599
0.133713
0.1173775
0.0969687
0.073235
0.0470289
0.019276
-0.0090589
-0.0370051
-0.0636183
-0.0880133
-0.1093913
-0.1270653
-0.1404804
-0.1492298
-0.1530652
-0.1519016
-0.1458172
-0.1350477
-0.1199761
-0.1011169
-0.0790988
-0.0546408
-0.0285303
-0.0015952
0.0253215
0.0513875
0.0758083
0.0978487
0.1168561
0.1322771
0.1436739
0.1507344
0
0.0070923
0.0071921
0.0067447
0.0059618
0.0050638
0.0041913
0.0034133
0.0027533
0.0022109
0.0017747
0.0014293
0.0011603
0.0009542
0.0008003
0.00069
0.0006172
0.0005773
0.0005682
0.0005889
0.0006406
0.0007261
0.0008501
0.0010196
0.0012443
0.0015368
0.0019135
0.0023957
0.0030094
0.0037873
0.0047681
0.0059963
0.0075188
0.0093774
0.0115921
0.0141312
0.0168638
0.019497
0.0215499
0.0225385
0
0.1487928
0.1404535
0.1280797
0.1119991
0.0926501
0.0705712
0.0463863
0.0207883
-0.00548
-0.0316475
-0.0569369
-0.0805878
-0.1018797
-0.1201543
-0.134837
-0.1454551
-0.1516542
-0.1532115
-0.1500443
-0.1422158
-0.1299347
-0.1135523
-0.0935533
-0.070543
-0.0452302
-0.0184065
0.0090775
0.0363388
0.0624903
0.086669
0.1080652
0.1259506
0.1397031
0.1488302
0.1529877
0.1519946
0.1458419
0.1346963
0.1188984
0.0989539
0.0755196
0.0493834
0.0214394
-0.0073412
-0.035944
-0.0633451
-0.0885495
-0.110626
-0.1287435
-0.1422032
-0.1504668
-0.1531803
-0.150191
-0.1415579
-0.1275534
-0.108659
-0.0855499
-0.059075
-0.0302272
-0.0001079
0.0301133
0.0592432
0.086112
0.1096206
0.1287868
0.1427875
0.1509964
0.1530147
0.1486934
0.138145
0.1217465
0.100129
0.0741584
0.0449034
0.0135951
-0.0184225
-0.0497489
-0.078987
-0.1048058
-0.1260024
-0.1415593
-0.1506973
-0.1529168
-0.14803
-0.136178
-0.1178346
-0.093793
-0.0651369
-0.0331978
0.0005034
0.0343252
0.0665832
0.0956336
0.1199579
0.1382441
0.1494617
0.1529244
0.1483381
0.13583
0.1159553
0.0896837
0.05836
0.023643
-0.0125749
-0.0482668
-0.081381
-0.1099597
-0.132256
-0.1468453
-0.1527233
-0.1493839
-0.13687
-0.1157942
-0.0873242
-0.0531331
