# Pulseq sequence file
# Created by MATLAB mr toolbox

[VERSION]
major 1
minor 5
revision 0

[DEFINITIONS]
AdcRasterTime 1e-07 
BlockDurationRaster 1e-05 
FOV 0.192 0.192 0.15 
GradientRasterTime 1e-05 
MaxAdcSegmentLength 4824 
Name mreg_FOV 
RadiofrequencyRasterTime 1e-06 
ReceiverGainHigh 1 
TE 0.00161 0.02424 
TotalDuration 0.1 

# Format of blocks:
# NUM DUR RF  GX  GY  GZ  ADC  EXT
[BLOCKS]
1 151   1   0   0   1  0  0
2  10   0   0   0   2  0  0
3   0   0   0   0   0  0  1
4 4827   0   3   4   5  1  0
5   0   0   0   0   0  0  2
6 683   0   6   6   6  0  0
7 4329   0   0   0   0  0  0

# Format of RF events:
# id ampl. mag_id phase_id time_shape_id center delay freqPPM phasePPM freq phase use
# ..   Hz      ..       ..            ..     us    us     ppm  rad/MHz   Hz   rad  ..
# Field 'use' is the initial of: excitation refocusing inversion saturation preparation other undefined
[RF]
1      793.451 1 2 0 700 100 0 0 0 0 e

# Format of arbitrary gradients:
#   time_shape_id of 0 means default timing (stepping with grad_raster starting at 1/2 of grad_raster)
# id amplitude first last amp_shape_id time_shape_id delay
# ..      Hz/m  Hz/m Hz/m        ..         ..          us
[GRADIENTS]
3  1.32395e+06            0            0 3 0 10
4  1.20668e+06            0            0 4 0 10
5  -2.3779e+06            0            0 5 0 10

# Format of trapezoid gradients:
# id amplitude rise flat fall delay
# ..      Hz/m   us   us   us    us
[TRAP]
 1      95238.1  10 1400  10  90
 2 -1.34286e+06  50    0  50   0
 6 -1.61551e+06 640 5550 640   0

# Format of ADC events:
# id num dwell delay freqPPM phasePPM freq phase phase_id
# ..  ..    ns    us     ppm  rad/MHz   Hz   rad       ..
[ADC]
1 9648 5000 10 0 0 0 0 0

# Format of extension lists:
# id type ref next_id
# next_id of 0 terminates the list
# Extension list is followed by extension specifications
[EXTENSIONS]
1 1 1 0
2 1 2 0

# Extension specification for setting labels:
# id set labelstring
extension LABELSET 1
1 1 NOPOS
2 0 NOPOS

# Sequence Shapes
[SHAPES]

shape_id 1
num_samples 1400
8.99842151e-10
2.43199855e-08
1.12656298e-07
3.09170473e-07
6.56904246e-07
1.19849185e-06
1.97597265e-06
3.03060449e-06
4.40267826e-06
6.13133416e-06
8.25438023e-06
1.08081136e-05
1.38271452e-05
1.73442275e-05
2.13900878e-05
2.59932649e-05
3.11799517e-05
3.69738435e-05
4.33959919e-05
5.04646662e-05
5.81952207e-05
6.65999704e-05
7.56880738e-05
8.54654244e-05
9.59345506e-05
0.000107094525
0.000118940881
0.000131465543
0.000144656762
0.000158499065
0.00017297321
0.00018805616
0.000203721059
0.000219937222
0.000236670141
0.000253881493
0.000271529171
0.000289567313
0.000307946355
0.00032661309
0.000345510734
0.000364579015
0.000383754263
0.000402969516
0.000422154638
0.000441236446
0.000460138849
0.000478782996
0.000497087441
0.000514968309
0.00053233948
0.000549112778
0.000565198171
0.000580503982
0.000594937105
0.000608403235
0.000620807096
0.000632052689
0.000642043539
0.000650682947
0.000657874259
0.000663521124
0.000667527772
0.00066979929
0.0006702419
0.000668763241
0.00066527266
0.000659681496
0.000651903371
0.000641854477
0.00062945387
0.000614623758
0.000597289788
0.000577381332
0.000554831771
0.000529578776
0.000501564581
0.000470736257
0.000437045976
0.000400451271
0.000360915288
0.000318407032
0.000272901604
0.000224380428
0.00017283147
0.000118249448
6.06360244e-05
1.48373487e-18
6.36425181e-05
0.000130267953
0.000199845108
0.000272335037
0.000347690918
0.00042585795
0.000506773266
0.000590365854
0.0006765565
0.000765257746
0.000856373867
0.000949800861
0.00104542646
0.00114313016
0.00124278326
0.00134424894
0.00144738233
0.00155203061
0.00165803316
0.00176522166
0.00187342027
0.0019824458
0.00209210792
0.00220220937
0.00231254618
0.00242290793
0.00253307803
0.00264283403
0.00275194785
0.00286018621
0.00296731089
0.00307307913
0.00317724399
0.00327955477
0.00337975737
0.00347759476
0.0035728074
0.00366513367
0.00375431037
0.00384007319
0.00392215718
0.00400029726
0.00407422874
0.00414368785
0.00420841222
0.00426814149
0.00432261777
0.00437158629
0.00441479585
0.00445199947
0.00448295488
0.00450742516
0.00452517922
0.00453599245
0.00453964723
0.00453593349
0.00452464934
0.00450560152
0.00447860605
0.0044434887
0.00440008558
0.00434824364
0.00428782118
0.00421868838
0.0041407278
0.00405383481
0.00395791813
0.00385290024
0.00373871781
0.00361532215
0.00348267957
0.0033407718
0.00318959634
0.00302916675
0.00285951306
0.00268068196
0.00249273714
0.00229575951
0.00208984739
0.00187511676
0.00165170134
0.00141975282
0.00117944086
0.000930953247
0.000674495899
0.000410292885
0.000138586405
0.000140363257
0.00042627782
0.000718861122
0.00101779927
0.00132276082
0.001633397
0.00194934196
0.00227021303
0.0025956111
0.00292512091
0.00325831147
0.00359473645
0.0039339347
0.00427543064
0.00461873489
0.00496334471
0.00530874468
0.00565440727
0.0059997935
0.00634435361
0.00668752778
0.00702874686
0.00736743315
0.00770300119
0.00803485856
0.00836240675
0.00868504203
0.00900215634
0.00931313821
0.00961737368
0.00991424729
0.0102031431
0.0104834454
0.0107545403
0.0110158162
0.0112666649
0.0115064831
0.011734673
0.0119506433
0.0121538109
0.0123436012
0.0125194498
0.0126808033
0.0128271202
0.0129578725
0.0130725463
0.0131706432
0.013251681
0.0133151954
0.0133607402
0.013387889
0.013396236
0.0133853969
0.0133550099
0.0133047371
0.0132342646
0.0131433042
0.013031594
0.0128988991
0.0127450128
0.012569757
0.0123729831
0.0121545732
0.01191444
0.0116525279
0.0113688139
0.0110633074
0.0107360517
0.0103871235
0.0100166342
0.00962472977
0.00921159134
0.00877743539
0.00832251409
0.00784711542
0.00735156339
0.00683621805
0.00630147563
0.00574776843
0.0051755648
0.00458536899
0.00397772096
0.00335319616
0.00271240518
0.00205599341
0.00138464062
0.000699060483
5.77812473e-17
0.000711761069
0.00143541088
0.00217010623
0.00291497332
0.00366910862
0.00443157974
0.00520142638
0.00597766138
0.00675927173
0.00754521975
0.00833444422
0.00912586162
0.00991836742
0.0107108374
0.0115021291
0.012291083
0.0130765244
0.0138572646
0.0146321026
0.0153998266
0.016159216
0.0169090424
0.0176480721
0.0183750673
0.0190887879
0.0197879937
0.0204714459
0.021137909
0.0217861528
0.0224149542
0.0230230992
0.0236093846
0.0241726203
0.0247116309
0.0252252578
0.0257123614
0.0261718226
0.026602545
0.0270034569
0.0273735129
0.0277116964
0.0280170209
0.0282885324
0.0285253108
0.0287264722
0.0288911703
0.0290185984
0.0291079913
0.0291586267
0.0291698269
0.0291409607
0.0290714449
0.0289607456
0.0288083799
0.0286139172
0.028376981
0.0280972494
0.0277744571
0.0274083963
0.0269989178
0.026545932
0.02604941
0.0255093845
0.0249259505
0.0242992662
0.0236295535
0.0229170987
0.022162253
0.0213654327
0.0205271198
0.0196478622
0.0187282734
0.0177690333
0.0167708874
0.015734647
0.0146611892
0.013551456
0.0124064543
0.0112272551
0.010014993
0.00877086548
0.00749613195
0.00619211289
0.00486018881
0.00350179909
0.00211844074
0.000711667092
0.00071691363
0.00216563986
0.00363279831
0.00511662567
0.00661531042
0.00812699474
0.00964977652
0.0111817114
0.012720815
0.0142650651
0.0158124039
0.0173607408
0.0189079544
0.0204518953
0.0219903889
0.0235212378
0.0250422248
0.0265511155
0.0280456615
0.0295236033
0.0309826728
0.0324205972
0.0338351014
0.0352239116
0.036584758
0.0379153786
0.039213522
0.0404769508
0.041703445
0.0428908051
0.0440368556
0.0451394484
0.0461964657
0.0472058239
0.0481654766
0.0490734178
0.0499276857
0.0507263654
0.0514675924
0.0521495562
0.0527705026
0.0533287378
0.0538226311
0.0542506176
0.054611202
0.0549029609
0.0551245458
0.0552746864
0.0553521927
0.055355958
0.0552849614
0.0551382704
0.0549150434
0.0546145316
0.0542360816
0.0537791377
0.0532432431
0.0526280427
0.0519332845
0.0511588212
0.0503046117
0.0493707228
0.0483573303
0.0472647203
0.0460932899
0.0448435483
0.0435161178
0.042111734
0.0406312462
0.0390756182
0.037445928
0.035743368
0.0339692449
0.0321249791
0.0302121047
0.0282322685
0.0261872293
0.0240788572
0.0219091321
0.0196801428
0.0173940856
0.0150532623
0.0126600788
0.0102170434
0.00772676421
0.00519194733
0.00261539438
1.03358224e-16
0.00265125088
0.00533528581
0.00804894781
0.0107889985
0.0135521214
0.0163349252
0.0191339476
0.0219456585
0.0247664643
0.0275927116
0.0304206914
0.033246643
0.0360667588
0.0388771882
0.0416740423
0.0444533988
0.0472113063
0.0499437894
0.0526468536
0.05531649
0.0579486808
0.060539404
0.063084639
0.0655803716
0.0680225994
0.0704073371
0.0727306221
0.0749885195
0.0771771281
0.0792925856
0.0813310741
0.0832888255
0.0851621274
0.0869473281
0.0886408424
0.0902391571
0.0917388361
0.0931365262
0.0944289622
0.0956129723
0.0966854832
0.0976435257
0.0984842393
0.0992048775
0.0998028129
0.100275542
0.100620689
0.100836012
0.100919408
0.100868913
0.100682713
0.100359142
0.0998966907
0.0992940066
0.0985499004
0.0976633485
0.0966334963
0.0954596619
0.0941413388
0.0926781991
0.0910700958
0.0893170655
0.0874193309
0.0853773025
0.0831915809
0.0808629581
0.0783924195
0.0757811445
0.0730305082
0.0701420818
0.0671176332
0.0639591278
0.0606687279
0.0572487933
0.0537018806
0.0500307426
0.0462383277
0.0423277786
0.0383024313
0.0341658132
0.0299216417
0.0255738219
0.0211264444
0.0165837827
0.011950291
0.00723060041
0.00242951625
0.00244798552
0.007396762
0.0124115073
0.0174867566
0.0226168905
0.02779614
0.0330185906
0.038278188
0.0435687429
0.0488839367
0.054217327
0.0595623535
0.0649123438
0.0702605202
0.0756000055
0.0809238296
0.0862249366
0.0914961915
0.0967303873
0.101920252
0.107058456
0.112137619
0.117150321
0.122089103
0.126946482
0.131714954
0.136387007
0.140955123
0.145411789
0.149749508
0.153960803
0.158038227
0.161974371
0.165761874
0.169393429
0.172861793
0.176159795
0.179280345
0.18221644
0.184961176
0.187507754
0.189849488
0.191979815
0.193892301
0.195580651
0.197038716
0.198260502
0.199240174
0.199972069
0.2004507
0.200670765
0.200627154
0.200314953
0.199729459
0.198866175
0.197720829
0.19628937
0.194567982
0.192553084
0.19024134
0.187629663
0.18471522
0.181495436
0.177968004
0.174130883
0.169982305
0.165520781
0.160745104
0.155654348
0.150247879
0.144525351
0.138486715
0.132132215
0.125462394
0.118478096
0.111180466
0.103570952
0.0956513049
0.0874235797
0.0788901365
0.0700536392
0.0609170559
0.0514836577
0.0417570179
0.0317410106
0.0214398092
0.0108578839
2.3447056e-16
0.0111287853
0.0225231254
0.034177388
0.0460856583
0.0582417433
0.0706391758
0.0832712186
0.0961308702
0.109210869
0.122503699
0.136001597
0.149696555
0.16358033
0.177644449
0.191880216
0.206278719
0.220830839
0.235527254
0.250358449
0.265314725
0.280386205
0.295562845
0.310834441
0.326190637
0.341620936
0.35711471
0.372661207
0.388249561
0.403868802
0.41950787
0.435155616
0.450800822
0.466432204
0.482038427
0.497608112
0.513129849
0.528592206
0.543983742
0.559293014
0.574508592
0.589619065
0.604613057
0.619479233
0.634206313
0.648783081
0.663198398
0.677441208
0.691500554
0.705365584
0.719025567
0.732469895
0.745688103
0.758669871
0.771405039
0.783883612
0.796095778
0.808031908
0.819682572
0.831038546
0.842090819
0.852830607
0.863249355
0.873338752
0.883090736
0.892497498
0.901551499
0.910245469
0.918572418
0.926525642
0.934098731
0.941285572
0.94808036
0.9544776
0.960472111
0.966059038
0.97123385
0.975992346
0.980330663
0.984245274
0.987732996
0.990790991
0.993416772
0.995608198
0.997363486
0.998681206
0.999560282
1
1
0.999560282
0.998681206
0.997363486
0.995608198
0.993416772
0.990790991
0.987732996
0.984245274
0.980330663
0.975992346
0.97123385
0.966059038
0.960472111
0.9544776
0.94808036
0.941285572
0.934098731
0.926525642
0.918572418
0.910245469
0.901551499
0.892497498
0.883090736
0.873338752
0.863249355
0.852830607
0.842090819
0.831038546
0.819682572
0.808031908
0.796095778
0.783883612
0.771405039
0.758669871
0.745688103
0.732469895
0.719025567
0.705365584
0.691500554
0.677441208
0.663198398
0.648783081
0.634206313
0.619479233
0.604613057
0.589619065
0.574508592
0.559293014
0.543983742
0.528592206
0.513129849
0.497608112
0.482038427
0.466432204
0.450800822
0.435155616
0.41950787
0.403868802
0.388249561
0.372661207
0.35711471
0.341620936
0.326190637
0.310834441
0.295562845
0.280386205
0.265314725
0.250358449
0.235527254
0.220830839
0.206278719
0.191880216
0.177644449
0.16358033
0.149696555
0.136001597
0.122503699
0.109210869
0.0961308702
0.0832712186
0.0706391758
0.0582417433
0.0460856583
0.034177388
0.0225231254
0.0111287853
2.3447056e-16
0.0108578839
0.0214398092
0.0317410106
0.0417570179
0.0514836577
0.0609170559
0.0700536392
0.0788901365
0.0874235797
0.0956513049
0.103570952
0.111180466
0.118478096
0.125462394
0.132132215
0.138486715
0.144525351
0.150247879
0.155654348
0.160745104
0.165520781
0.169982305
0.174130883
0.177968004
0.181495436
0.18471522
0.187629663
0.19024134
0.192553084
0.194567982
0.19628937
0.197720829
0.198866175
0.199729459
0.200314953
0.200627154
0.200670765
0.2004507
0.199972069
0.199240174
0.198260502
0.197038716
0.195580651
0.193892301
0.191979815
0.189849488
0.187507754
0.184961176
0.18221644
0.179280345
0.176159795
0.172861793
0.169393429
0.165761874
0.161974371
0.158038227
0.153960803
0.149749508
0.145411789
0.140955123
0.136387007
0.131714954
0.126946482
0.122089103
0.117150321
0.112137619
0.107058456
0.101920252
0.0967303873
0.0914961915
0.0862249366
0.0809238296
0.0756000055
0.0702605202
0.0649123438
0.0595623535
0.054217327
0.0488839367
0.0435687429
0.038278188
0.0330185906
0.02779614
0.0226168905
0.0174867566
0.0124115073
0.007396762
0.00244798552
0.00242951625
0.00723060041
0.011950291
0.0165837827
0.0211264444
0.0255738219
0.0299216417
0.0341658132
0.0383024313
0.0423277786
0.0462383277
0.0500307426
0.0537018806
0.0572487933
0.0606687279
0.0639591278
0.0671176332
0.0701420818
0.0730305082
0.0757811445
0.0783924195
0.0808629581
0.0831915809
0.0853773025
0.0874193309
0.0893170655
0.0910700958
0.0926781991
0.0941413388
0.0954596619
0.0966334963
0.0976633485
0.0985499004
0.0992940066
0.0998966907
0.100359142
0.100682713
0.100868913
0.100919408
0.100836012
0.100620689
0.100275542
0.0998028129
0.0992048775
0.0984842393
0.0976435257
0.0966854832
0.0956129723
0.0944289622
0.0931365262
0.0917388361
0.0902391571
0.0886408424
0.0869473281
0.0851621274
0.0832888255
0.0813310741
0.0792925856
0.0771771281
0.0749885195
0.0727306221
0.0704073371
0.0680225994
0.0655803716
0.063084639
0.060539404
0.0579486808
0.05531649
0.0526468536
0.0499437894
0.0472113063
0.0444533988
0.0416740423
0.0388771882
0.0360667588
0.033246643
0.0304206914
0.0275927116
0.0247664643
0.0219456585
0.0191339476
0.0163349252
0.0135521214
0.0107889985
0.00804894781
0.00533528581
0.00265125088
1.57260563e-16
0.00261539438
0.00519194733
0.00772676421
0.0102170434
0.0126600788
0.0150532623
0.0173940856
0.0196801428
0.0219091321
0.0240788572
0.0261872293
0.0282322685
0.0302121047
0.0321249791
0.0339692449
0.035743368
0.037445928
0.0390756182
0.0406312462
0.042111734
0.0435161178
0.0448435483
0.0460932899
0.0472647203
0.0483573303
0.0493707228
0.0503046117
0.0511588212
0.0519332845
0.0526280427
0.0532432431
0.0537791377
0.0542360816
0.0546145316
0.0549150434
0.0551382704
0.0552849614
0.055355958
0.0553521927
0.0552746864
0.0551245458
0.0549029609
0.054611202
0.0542506176
0.0538226311
0.0533287378
0.0527705026
0.0521495562
0.0514675924
0.0507263654
0.0499276857
0.0490734178
0.0481654766
0.0472058239
0.0461964657
0.0451394484
0.0440368556
0.0428908051
0.041703445
0.0404769508
0.039213522
0.0379153786
0.036584758
0.0352239116
0.0338351014
0.0324205972
0.0309826728
0.0295236033
0.0280456615
0.0265511155
0.0250422248
0.0235212378
0.0219903889
0.0204518953
0.0189079544
0.0173607408
0.0158124039
0.0142650651
0.012720815
0.0111817114
0.00964977652
0.00812699474
0.00661531042
0.00511662567
0.00363279831
0.00216563986
0.00071691363
0.000711667092
0.00211844074
0.00350179909
0.00486018881
0.00619211289
0.00749613195
0.00877086548
0.010014993
0.0112272551
0.0124064543
0.013551456
0.0146611892
0.015734647
0.0167708874
0.0177690333
0.0187282734
0.0196478622
0.0205271198
0.0213654327
0.022162253
0.0229170987
0.0236295535
0.0242992662
0.0249259505
0.0255093845
0.02604941
0.026545932
0.0269989178
0.0274083963
0.0277744571
0.0280972494
0.028376981
0.0286139172
0.0288083799
0.0289607456
0.0290714449
0.0291409607
0.0291698269
0.0291586267
0.0291079913
0.0290185984
0.0288911703
0.0287264722
0.0285253108
0.0282885324
0.0280170209
0.0277116964
0.0273735129
0.0270034569
0.026602545
0.0261718226
0.0257123614
0.0252252578
0.0247116309
0.0241726203
0.0236093846
0.0230230992
0.0224149542
0.0217861528
0.021137909
0.0204714459
0.0197879937
0.0190887879
0.0183750673
0.0176480721
0.0169090424
0.016159216
0.0153998266
0.0146321026
0.0138572646
0.0130765244
0.012291083
0.0115021291
0.0107108374
0.00991836742
0.00912586162
0.00833444422
0.00754521975
0.00675927173
0.00597766138
0.00520142638
0.00443157974
0.00366910862
0.00291497332
0.00217010623
0.00143541088
0.000711761069
5.77812473e-17
0.000699060483
0.00138464062
0.00205599341
0.00271240518
0.00335319616
0.00397772096
0.00458536899
0.0051755648
0.00574776843
0.00630147563
0.00683621805
0.00735156339
0.00784711542
0.00832251409
0.00877743539
0.00921159134
0.00962472977
0.0100166342
0.0103871235
0.0107360517
0.0110633074
0.0113688139
0.0116525279
0.01191444
0.0121545732
0.0123729831
0.012569757
0.0127450128
0.0128988991
0.013031594
0.0131433042
0.0132342646
0.0133047371
0.0133550099
0.0133853969
0.013396236
0.013387889
0.0133607402
0.0133151954
0.013251681
0.0131706432
0.0130725463
0.0129578725
0.0128271202
0.0126808033
0.0125194498
0.0123436012
0.0121538109
0.0119506433
0.011734673
0.0115064831
0.0112666649
0.0110158162
0.0107545403
0.0104834454
0.0102031431
0.00991424729
0.00961737368
0.00931313821
0.00900215634
0.00868504203
0.00836240675
0.00803485856
0.00770300119
0.00736743315
0.00702874686
0.00668752778
0.00634435361
0.0059997935
0.00565440727
0.00530874468
0.00496334471
0.00461873489
0.00427543064
0.0039339347
0.00359473645
0.00325831147
0.00292512091
0.0025956111
0.00227021303
0.00194934196
0.001633397
0.00132276082
0.00101779927
0.000718861122
0.00042627782
0.000140363257
0.000138586405
0.000410292885
0.000674495899
0.000930953247
0.00117944086
0.00141975282
0.00165170134
0.00187511676
0.00208984739
0.00229575951
0.00249273714
0.00268068196
0.00285951306
0.00302916675
0.00318959634
0.0033407718
0.00348267957
0.00361532215
0.00373871781
0.00385290024
0.00395791813
0.00405383481
0.0041407278
0.00421868838
0.00428782118
0.00434824364
0.00440008558
0.0044434887
0.00447860605
0.00450560152
0.00452464934
0.00453593349
0.00453964723
0.00453599245
0.00452517922
0.00450742516
0.00448295488
0.00445199947
0.00441479585
0.00437158629
0.00432261777
0.00426814149
0.00420841222
0.00414368785
0.00407422874
0.00400029726
0.00392215718
0.00384007319
0.00375431037
0.00366513367
0.0035728074
0.00347759476
0.00337975737
0.00327955477
0.00317724399
0.00307307913
0.00296731089
0.00286018621
0.00275194785
0.00264283403
0.00253307803
0.00242290793
0.00231254618
0.00220220937
0.00209210792
0.0019824458
0.00187342027
0.00176522166
0.00165803316
0.00155203061
0.00144738233
0.00134424894
0.00124278326
0.00114313016
0.00104542646
0.000949800861
0.000856373867
0.000765257746
0.0006765565
0.000590365854
0.000506773266
0.00042585795
0.000347690918
0.000272335037
0.000199845108
0.000130267953
6.36425181e-05
7.63277915e-18
6.06360244e-05
0.000118249448
0.00017283147
0.000224380428
0.000272901604
0.000318407032
0.000360915288
0.000400451271
0.000437045976
0.000470736257
0.000501564581
0.000529578776
0.000554831771
0.000577381332
0.000597289788
0.000614623758
0.00062945387
0.000641854477
0.000651903371
0.000659681496
0.00066527266
0.000668763241
0.0006702419
0.00066979929
0.000667527772
0.000663521124
0.000657874259
0.000650682947
0.000642043539
0.000632052689
0.000620807096
0.000608403235
0.000594937105
0.000580503982
0.000565198171
0.000549112778
0.00053233948
0.000514968309
0.000497087441
0.000478782996
0.000460138849
0.000441236446
0.000422154638
0.000402969516
0.000383754263
0.000364579015
0.000345510734
0.00032661309
0.000307946355
0.000289567313
0.000271529171
0.000253881493
0.000236670141
0.000219937222
0.000203721059
0.00018805616
0.00017297321
0.000158499065
0.000144656762
0.000131465543
0.000118940881
0.000107094525
9.59345506e-05
8.54654244e-05
7.56880738e-05
6.65999704e-05
5.81952207e-05
5.04646662e-05
4.33959919e-05
3.69738435e-05
3.11799517e-05
2.59932649e-05
2.13900878e-05
1.73442275e-05
1.38271452e-05
1.08081136e-05
8.25438023e-06
6.13133416e-06
4.40267826e-06
3.03060449e-06
1.97597265e-06
1.19849185e-06
6.56904246e-07
3.09170473e-07
1.12656298e-07
2.43199855e-08
8.99842151e-10

shape_id 2
num_samples 1400
0.5
0
0
84
-0.5
0
0
85
0.5
0
0
85
-0.5
0
0
84
0.5
0
0
85
-0.5
0
0
84
0.5
0
0
85
-0.5
0
0
171
0.5
0
0
85
-0.5
0
0
85
0.5
0
0
84
-0.5
0
0
84
0.5
0
0
85
-0.5
0
0
85
0.5
0
0
84

shape_id 3
num_samples 4826
0
0
39
0.0034937
0.0026548
0.0018571
0.0011027
0.0003794
-0.0003395
-0.0010885
-0.001904
-0.0028168
-0.0038408
0
0.0218195
0.0217802
0.0207643
0.0193082
0.0179298
0.0169645
0.0165932
0.0168934
0.017869
0.01945
0.0214649
0.0236119
0.025513
0.0271337
0.0277446
0
-0.2519958
-0.2618416
-0.2458909
-0.2015431
-0.1227041
-0.0254874
0.0773166
0.1711271
0.236575
0.2652539
0.2543809
0.2081434
0.1223763
-0.0038857
-0.1455592
0
-0.1362886
-0.1723802
-0.1378623
-0.0889356
-0.038449
0.0107782
0.0593819
0.1091288
0.1478256
0
-0.2664868
-0.2597309
-0.1708487
-0.043282
0.0764076
0.1737134
0.244642
0.2786243
0.2655211
0.2124091
0.132417
0.0346231
-0.0671405
-0.1475142
-0.206068
-0.24044
-0.2503635
-0.2382711
-0.2079305
-0.1641682
-0.1117174
-0.0551459
0.0003711
0.0514873
0.0961511
0.132673
0.160037
0.1778263
0.1861469
0.1868396
0.1812353
0.1650503
0.1422973
0.1150887
0.0846821
0.0524856
0.0198236
-0.0121005
-0.0422296
-0.0696712
-0.0937064
-0.1137921
-0.129558
-0.1407974
-0.1474566
-0.1496182
-0.1474858
-0.1413648
-0.1316445
-0.1187792
-0.10327
-0.085648
-0.0664578
-0.0462439
-0.0255366
-0.0048418
0.0153688
0.0346657
0.052667
0.0690433
0.0835201
0.0958796
0.1059602
0
-0.1486161
0.0257233
0.1513469
0.1838944
0.1864177
0.1819698
0.185086
0
0.0904768
0.0854258
0.0791732
0.0717684
0.063278
0.0537862
0.0433939
0.0322193
0.0203959
0.0080723
-0.0045894
-0.0174158
-0.0302227
-0.0428189
-0.0550076
-0.0665894
-0.0773657
-0.0871407
-0.0957263
-0.1029441
-0.1086299
-0.112637
-0.1148397
-0.1151367
-0.1134549
-0.1097517
-0.1040189
-0.0962841
-0.0866132
-0.0751117
-0.0619256
-0.0472411
-0.0312842
-0.0143193
0.0033539
0.0214035
0.0394695
0.0571701
0.0741078
0.0898763
0.1040703
0.1162933
0.1261687
0.1333501
0.1375323
0.1384623
0.1359515
0.1298849
0.1202332
0.1070599
0.0905306
0.0709174
0.0486029
0.0240807
-0.0020479
-0.0290799
-0.0562216
-0.0826033
-0.1073
-0.1293552
-0.1478118
-0.1617456
-0.1703048
-0.1727527
-0.1685133
-0.1572177
-0.1387521
-0.1133017
-0.0813906
-0.0431117
0.003556
0.0469862
0.0887563
0.1252596
0.1571184
0.1864194
0.206767
0.215772
0.2111397
0.1907533
0.1542803
0.1028904
0.0384682
-0.0343409
-0.1100341
-0.1809511
-0.2382832
-0.2733935
-0.2743571
-0.2344505
-0.1617582
-0.0642083
0.0462056
0.1547724
0.2335471
0.2718152
0.2597256
0.1856765
0.049885
0
-0.1719482
-0.1833876
-0.1754133
-0.1378715
-0.05349
0.0535184
0.1374042
0.1722751
0.1837781
0
-0.209447
-0.2752084
-0.2483904
-0.1561325
-0.0319551
0.0931605
0.1958225
0.2608498
0.2816395
0.2594825
0.2012646
0.1145665
0.0116497
-0.0797735
-0.1550539
-0.2089298
-0.2386321
-0.2446462
-0.229437
-0.1970898
-0.1519772
-0.0989155
-0.0434123
0.0105111
0.0598644
0.0987539
0.1358326
0.165824
0.1862586
0.195625
0.1919137
0.1790315
0.1586207
0.1322258
0.1014711
0.067981
0.0333139
-0.0010891
-0.033945
-0.0641552
-0.0908227
-0.1132585
-0.1309809
-0.1437074
-0.1513413
-0.1539546
-0.1517672
-0.145125
-0.1344769
-0.1203509
-0.1033324
-0.0840417
-0.0631144
-0.0411832
-0.018862
0.0032686
0.0246718
0.044865
0.0634255
0.0799966
0.0942896
0.1060852
0.1152327
0.1216484
0.1253115
0.1262604
0.1245874
0.120433
0.1139787
0.1054423
0.0950694
0.0831274
0.0698995
0.0556779
0.0407574
0.0254309
0.0099839
-0.0053104
-0.0201947
-0.0344307
-0.0478026
-0.0601189
-0.0712139
-0.0809497
-0.0892158
-0.0959294
-0.1010363
-0.1045082
-0.1063434
-0.1065643
-0.1052164
-0.1023659
-0.0980981
-0.0925147
-0.0857321
-0.0778784
-0.0690916
-0.0595168
-0.0493042
-0.0386064
-0.0275771
-0.016368
-0.005128
0.0059996
0.0168778
0.027378
0.0373804
0.0467759
0.0554664
0.0633658
0.0704
0.076508
0.0816415
0.0857648
0.0888551
0.0909021
0.0919071
0.0918836
0.0908551
0.0888559
0.0859294
0.0821277
0.0775102
0.0721435
0.0660996
0.0594553
0.0522915
0.0446915
0.036741
0.028526
0.0201335
0.0116487
0.0031562
-0.0052624
-0.0135286
0
-0.1553773
-0.1517127
-0.1059532
-0.0513552
0.0048516
0.0629811
0.1123028
0
-0.0589845
-0.0630623
-0.0666996
-0.0698613
-0.0725152
-0.074632
-0.0761862
-0.077156
-0.077524
-0.0772766
-0.0764057
-0.0749071
-0.0727824
-0.0700382
-0.066686
-0.0627434
-0.0582324
-0.0531816
-0.0476237
-0.0415975
-0.0351465
-0.0283188
-0.0211674
-0.0137496
-0.0061262
0.0016383
0.0094764
0.0173181
0.0250917
0.032724
0.040141
0.0472689
0.0540346
0.0603664
0.0661944
0.0714523
0.0760769
0.0800097
0.0831974
0.0855925
0.0871544
0.0878492
0.0876517
0.0865446
0.08452
0.0815791
0.0777331
0.0730033
0.0674213
0.0610287
0.0538776
0.0460305
0.037559
0.0285449
0.0190785
0.0092582
-0.0008099
-0.0110133
-0.0212341
-0.0313501
-0.0412365
-0.0507664
-0.0598131
-0.0682517
-0.07596
-0.0828214
-0.0887251
-0.0935695
-0.0972627
-0.0997249
-0.1008896
-0.1007058
-0.0991386
-0.0961713
-0.0918062
-0.0860655
-0.0789919
-0.0706498
-0.0611242
-0.0505217
-0.0389698
-0.0266153
-0.0136243
-0.0001795
0.0135205
0.0272647
0.040832
0.0539935
0.0665171
0.0781705
0.0887255
0.0979616
0.1056712
0.1116639
0.1157705
0.1178481
0.1177846
0.1155021
0.1109613
0.1041651
0.0951606
0.0840425
0.0709532
0.0560844
0.039676
0.0220147
0.0034319
-0.0157015
-0.0349793
-0.0539668
-0.072209
-0.0892397
-0.1045911
-0.1178066
-0.1284524
-0.1361307
-0.1404935
-0.1412566
-0.1382134
-0.1312474
-0.1203453
-0.1056065
-0.0872525
-0.0656321
-0.0412241
-0.0146365
0.0133997
0.0420408
0.0703468
0.0973024
0.1218454
0.1429002
0.1594173
0.1704181
0.1750444
0.1726116
0.1626621
0.1450213
0.1198469
0.0876755
0.0494568
0.0065763
-0.0398998
-0.0901132
-0.1315126
-0.1659504
-0.1913623
-0.2057588
-0.210178
-0.2040906
-0.1831208
-0.1461753
-0.0945074
-0.0311115
0.0404376
0.1136958
0.1816456
0.2358429
0.2676382
0.2696011
0.2311013
0.1558588
0.057234
-0.0526623
-0.1574444
-0.2386687
-0.2782633
-0.2629386
-0.1875819
-0.0602697
0.0929259
0
0.1652822
0.1370663
0.1072353
0.0768409
0.0467586
0.0172162
-0.0120134
-0.0412433
-0.0709205
0
0.2707068
0.1971052
0.0620087
-0.0828805
-0.1997452
-0.2669748
-0.2778299
-0.2366534
-0.15607
-0.0527667
0.0557737
0.1552478
0.2286258
0.2618098
0.2619442
0.2335649
0.1835149
0.1197095
0.049631
-0.0192766
-0.0819307
-0.1336685
-0.1710678
-0.1940943
-0.2088508
-0.2100048
-0.1978997
-0.173662
-0.1350101
-0.0919558
-0.0468516
-0.0017908
0.0409636
0.0795337
0.112457
0.1386939
0.1576136
0.1689656
0.1728396
0.1696171
0.1599209
0.1445607
0.1244804
0.1007091
0.0743144
0.0463613
0.0178768
-0.0101795
-0.0369396
-0.0616448
-0.0836577
-0.1024698
-0.1177041
-0.1291132
-0.1365746
-0.1400826
-0.1397383
-0.1357374
-0.1283571
-0.117942
-0.1048905
-0.0896397
-0.0726528
-0.0544052
-0.0353731
-0.0160222
0.0032019
0.0218818
0.0396358
0.0561232
0.0710487
0.0841649
0.0952752
0.1042328
0.1109415
0.1153536
0.117468
0.1173267
0.1150121
0.1106422
0.1043665
0.0963618
0.0868265
0.075977
0.0640419
0.051258
0.0378658
0.0241049
0.0102107
-0.0035895
-0.0170799
-0.030058
-0.0423388
-0.0537546
-0.0641583
-0.0734237
-0.0814468
-0.0881454
-0.0934602
-0.0973537
-0.0998102
-0.1008346
-0.1004512
-0.0987032
-0.0956502
-0.0913675
-0.0859436
-0.079479
-0.0720843
-0.0638777
-0.0549841
-0.0455323
-0.0356538
-0.025481
-0.0151452
-0.0047753
0.0055036
0.0155714
0.0253152
0.0346286
0.0434142
0.0515836
0.0590581
0.0657696
0.0716603
0.0766835
0.0808032
0.0839946
0.0862434
0.087546
0.0879087
0.0873476
0.0858881
0.0835637
0.0804162
0.0764944
0.0718534
0.0665539
0.0606618
0.0542465
0.0473808
0.0401397
0.0326
0.0248391
0.0169343
0.0089625
0.0009986
-0.006884
-0.0146146
-0.0221264
-0.0293553
-0.0362423
-0.0427324
-0.0487756
-0.0543275
-0.0593483
-0.0638044
-0.067668
-0.0709162
-0.0735329
-0.075507
-0.0768331
-0.0775116
-0.077548
-0.076953
-0.0757419
-0.0739352
-0.0715569
-0.0686357
-0.0652034
-0.0612954
-0.0569498
-0.0522074
-0.047111
-0.041705
-0.0360356
-0.0301495
-0.0240942
-0.0179173
-0.0116664
-0.0053886
0.00087
0.0070643
0.0131507
0.0190871
0.0248338
0.0303528
0.0356088
0.0405691
0.0452035
0.0494849
0.0533892
0.0568951
0.0599848
0.0626435
0.0648595
0.0666245
0.0679333
0.0687836
0.0691766
0.069116
0.0686087
0.0676641
0
-0.1229818
-0.0615407
0.0128968
0.0840246
0.1373272
0.1673097
0.1850464
0
0.0448493
0.0413387
0.0375631
0.033541
0.0292927
0.0248401
0.0202071
0.0154185
0.0105011
0.0054826
0.0003917
-0.0047416
-0.0098865
-0.015012
-0.0200861
-0.0250769
-0.0299521
-0.0346799
-0.0392285
-0.0435668
-0.0476642
-0.0514916
-0.0550204
-0.0582239
-0.0610766
-0.0635552
-0.0656381
-0.0673061
-0.068542
-0.0693317
-0.0696633
-0.0695283
-0.0689207
-0.0678378
-0.0662802
-0.0642517
-0.0617596
-0.0588143
-0.0554299
-0.051624
-0.047417
-0.0428332
-0.0379001
-0.0326477
-0.0271098
-0.0213226
-0.0153247
-0.0091577
-0.0028648
0.0035085
0.0099154
0.0163075
0.0226357
0.0288502
0.034901
0.0407379
0.046312
0.0515745
0.0564788
0.0609795
0.0650334
0.0686003
0.0716431
0.0741276
0.0760239
0.077306
0.0779528
0.0779478
0.0772798
0.0759429
0.0739368
0.0712675
0.0679462
0.0639909
0.0594252
0.0542789
0.0485879
0.0423939
0.0357444
0.0286922
0.0212951
0.013616
0.0057219
-0.0023163
-0.0104244
-0.0185256
-0.0265412
-0.0343908
-0.0419939
-0.0492697
-0.056139
-0.0625241
-0.0683503
-0.0735464
-0.0780455
-0.0817865
-0.0847143
-0.0867807
-0.0879456
-0.0881773
-0.0874533
-0.085761
-0.0830983
-0.0794737
-0.0749069
-0.0694289
-0.0630824
-0.055921
-0.0480103
-0.039426
-0.0302549
-0.0205936
-0.0105475
-0.0002305
0.0102365
0.0207264
0.0311079
0.0412464
0.0510057
0.0602497
0.0688449
0.0766607
0.0835732
0.0894658
0.0942314
