# Pulseq sequence file
# Created by MATLAB mr toolbox

[VERSION]
major 1
minor 5
revision 0

[DEFINITIONS]
AdcRasterTime 1e-07 
BlockDurationRaster 1e-05 
FOV 0.192 0.192 0.15 
GradientRasterTime 1e-05 
MaxAdcSegmentLength 2984 
Name mreg_FOV 
RadiofrequencyRasterTime 1e-06 
ReceiverGainHigh 1 
TE 0.00161 0.02304 
TotalDuration 0.1 

# Format of blocks:
# NUM DUR RF  GX  GY  GZ  ADC  EXT
[BLOCKS]
1 151   1   0   0   1  0  0
2  10   0   0   0   2  0  0
3   0   0   0   0   0  0  1
4 4478   0   3   4   5  1  0
5   0   0   0   0   0  0  2
6 683   0   6   6   6  0  0
7 4678   0   0   0   0  0  0

# Format of RF events:
# id ampl. mag_id phase_id time_shape_id center delay freqPPM phasePPM freq phase use
# ..   Hz      ..       ..            ..     us    us     ppm  rad/MHz   Hz   rad  ..
# Field 'use' is the initial of: excitation refocusing inversion saturation preparation other undefined
[RF]
1      793.451 1 2 0 700 100 0 0 0 0 e

# Format of arbitrary gradients:
#   time_shape_id of 0 means default timing (stepping with grad_raster starting at 1/2 of grad_raster)
# id amplitude first last amp_shape_id time_shape_id delay
# ..      Hz/m  Hz/m Hz/m        ..         ..          us
[GRADIENTS]
3 -2.37677e+06            0            0 3 0 10
4 -2.39002e+06            0            0 4 0 10
5  -2.3779e+06            0            0 5 0 10

# Format of trapezoid gradients:
# id amplitude rise flat fall delay
# ..      Hz/m   us   us   us    us
[TRAP]
 1      95238.1  10 1400  10  90
 2 -1.34286e+06  50    0  50   0
 6 -1.61551e+06 640 5550 640   0

# Format of ADC events:
# id num dwell delay freqPPM phasePPM freq phase phase_id
# ..  ..    ns    us     ppm  rad/MHz   Hz   rad       ..
[ADC]
1 8952 5000 10 0 0 0 0 0

# Format of extension lists:
# id type ref next_id
# next_id of 0 terminates the list
# Extension list is followed by extension specifications
[EXTENSIONS]
1 1 1 0
2 1 2 0

# Extension specification for setting labels:
# id set labelstring
extension LABELSET 1
1 1 NOPOS
2 0 NOPOS

# Sequence Shapes
[SHAPES]

shape_id 1
num_samples 1400
8.99842151e-10
2.43199855e-08
1.12656298e-07
3.09170473e-07
6.56904246e-07
1.19849185e-06
1.97597265e-06
3.03060449e-06
4.40267826e-06
6.13133416e-06
8.25438023e-06
1.08081136e-05
1.38271452e-05
1.73442275e-05
2.13900878e-05
2.59932649e-05
3.11799517e-05
3.69738435e-05
4.33959919e-05
5.04646662e-05
5.81952207e-05
6.65999704e-05
7.56880738e-05
8.54654244e-05
9.59345506e-05
0.000107094525
0.000118940881
0.000131465543
0.000144656762
0.000158499065
0.00017297321
0.00018805616
0.000203721059
0.000219937222
0.000236670141
0.000253881493
0.000271529171
0.000289567313
0.000307946355
0.00032661309
0.000345510734
0.000364579015
0.000383754263
0.000402969516
0.000422154638
0.000441236446
0.000460138849
0.000478782996
0.000497087441
0.000514968309
0.00053233948
0.000549112778
0.000565198171
0.000580503982
0.000594937105
0.000608403235
0.000620807096
0.000632052689
0.000642043539
0.000650682947
0.000657874259
0.000663521124
0.000667527772
0.00066979929
0.0006702419
0.000668763241
0.00066527266
0.000659681496
0.000651903371
0.000641854477
0.00062945387
0.000614623758
0.000597289788
0.000577381332
0.000554831771
0.000529578776
0.000501564581
0.000470736257
0.000437045976
0.000400451271
0.000360915288
0.000318407032
0.000272901604
0.000224380428
0.00017283147
0.000118249448
6.06360244e-05
1.48373487e-18
6.36425181e-05
0.000130267953
0.000199845108
0.000272335037
0.000347690918
0.00042585795
0.000506773266
0.000590365854
0.0006765565
0.000765257746
0.000856373867
0.000949800861
0.00104542646
0.00114313016
0.00124278326
0.00134424894
0.00144738233
0.00155203061
0.00165803316
0.00176522166
0.00187342027
0.0019824458
0.00209210792
0.00220220937
0.00231254618
0.00242290793
0.00253307803
0.00264283403
0.00275194785
0.00286018621
0.00296731089
0.00307307913
0.00317724399
0.00327955477
0.00337975737
0.00347759476
0.0035728074
0.00366513367
0.00375431037
0.00384007319
0.00392215718
0.00400029726
0.00407422874
0.00414368785
0.00420841222
0.00426814149
0.00432261777
0.00437158629
0.00441479585
0.00445199947
0.00448295488
0.00450742516
0.00452517922
0.00453599245
0.00453964723
0.00453593349
0.00452464934
0.00450560152
0.00447860605
0.0044434887
0.00440008558
0.00434824364
0.00428782118
0.00421868838
0.0041407278
0.00405383481
0.00395791813
0.00385290024
0.00373871781
0.00361532215
0.00348267957
0.0033407718
0.00318959634
0.00302916675
0.00285951306
0.00268068196
0.00249273714
0.00229575951
0.00208984739
0.00187511676
0.00165170134
0.00141975282
0.00117944086
0.000930953247
0.000674495899
0.000410292885
0.000138586405
0.000140363257
0.00042627782
0.000718861122
0.00101779927
0.00132276082
0.001633397
0.00194934196
0.00227021303
0.0025956111
0.00292512091
0.00325831147
0.00359473645
0.0039339347
0.00427543064
0.00461873489
0.00496334471
0.00530874468
0.00565440727
0.0059997935
0.00634435361
0.00668752778
0.00702874686
0.00736743315
0.00770300119
0.00803485856
0.00836240675
0.00868504203
0.00900215634
0.00931313821
0.00961737368
0.00991424729
0.0102031431
0.0104834454
0.0107545403
0.0110158162
0.0112666649
0.0115064831
0.011734673
0.0119506433
0.0121538109
0.0123436012
0.0125194498
0.0126808033
0.0128271202
0.0129578725
0.0130725463
0.0131706432
0.013251681
0.0133151954
0.0133607402
0.013387889
0.013396236
0.0133853969
0.0133550099
0.0133047371
0.0132342646
0.0131433042
0.013031594
0.0128988991
0.0127450128
0.012569757
0.0123729831
0.0121545732
0.01191444
0.0116525279
0.0113688139
0.0110633074
0.0107360517
0.0103871235
0.0100166342
0.00962472977
0.00921159134
0.00877743539
0.00832251409
0.00784711542
0.00735156339
0.00683621805
0.00630147563
0.00574776843
0.0051755648
0.00458536899
0.00397772096
0.00335319616
0.00271240518
0.00205599341
0.00138464062
0.000699060483
5.77812473e-17
0.000711761069
0.00143541088
0.00217010623
0.00291497332
0.00366910862
0.00443157974
0.00520142638
0.00597766138
0.00675927173
0.00754521975
0.00833444422
0.00912586162
0.00991836742
0.0107108374
0.0115021291
0.012291083
0.0130765244
0.0138572646
0.0146321026
0.0153998266
0.016159216
0.0169090424
0.0176480721
0.0183750673
0.0190887879
0.0197879937
0.0204714459
0.021137909
0.0217861528
0.0224149542
0.0230230992
0.0236093846
0.0241726203
0.0247116309
0.0252252578
0.0257123614
0.0261718226
0.026602545
0.0270034569
0.0273735129
0.0277116964
0.0280170209
0.0282885324
0.0285253108
0.0287264722
0.0288911703
0.0290185984
0.0291079913
0.0291586267
0.0291698269
0.0291409607
0.0290714449
0.0289607456
0.0288083799
0.0286139172
0.028376981
0.0280972494
0.0277744571
0.0274083963
0.0269989178
0.026545932
0.02604941
0.0255093845
0.0249259505
0.0242992662
0.0236295535
0.0229170987
0.022162253
0.0213654327
0.0205271198
0.0196478622
0.0187282734
0.0177690333
0.0167708874
0.015734647
0.0146611892
0.013551456
0.0124064543
0.0112272551
0.010014993
0.00877086548
0.00749613195
0.00619211289
0.00486018881
0.00350179909
0.00211844074
0.000711667092
0.00071691363
0.00216563986
0.00363279831
0.00511662567
0.00661531042
0.00812699474
0.00964977652
0.0111817114
0.012720815
0.0142650651
0.0158124039
0.0173607408
0.0189079544
0.0204518953
0.0219903889
0.0235212378
0.0250422248
0.0265511155
0.0280456615
0.0295236033
0.0309826728
0.0324205972
0.0338351014
0.0352239116
0.036584758
0.0379153786
0.039213522
0.0404769508
0.041703445
0.0428908051
0.0440368556
0.0451394484
0.0461964657
0.0472058239
0.0481654766
0.0490734178
0.0499276857
0.0507263654
0.0514675924
0.0521495562
0.0527705026
0.0533287378
0.0538226311
0.0542506176
0.054611202
0.0549029609
0.0551245458
0.0552746864
0.0553521927
0.055355958
0.0552849614
0.0551382704
0.0549150434
0.0546145316
0.0542360816
0.0537791377
0.0532432431
0.0526280427
0.0519332845
0.0511588212
0.0503046117
0.0493707228
0.0483573303
0.0472647203
0.0460932899
0.0448435483
0.0435161178
0.042111734
0.0406312462
0.0390756182
0.037445928
0.035743368
0.0339692449
0.0321249791
0.0302121047
0.0282322685
0.0261872293
0.0240788572
0.0219091321
0.0196801428
0.0173940856
0.0150532623
0.0126600788
0.0102170434
0.00772676421
0.00519194733
0.00261539438
1.03358224e-16
0.00265125088
0.00533528581
0.00804894781
0.0107889985
0.0135521214
0.0163349252
0.0191339476
0.0219456585
0.0247664643
0.0275927116
0.0304206914
0.033246643
0.0360667588
0.0388771882
0.0416740423
0.0444533988
0.0472113063
0.0499437894
0.0526468536
0.05531649
0.0579486808
0.060539404
0.063084639
0.0655803716
0.0680225994
0.0704073371
0.0727306221
0.0749885195
0.0771771281
0.0792925856
0.0813310741
0.0832888255
0.0851621274
0.0869473281
0.0886408424
0.0902391571
0.0917388361
0.0931365262
0.0944289622
0.0956129723
0.0966854832
0.0976435257
0.0984842393
0.0992048775
0.0998028129
0.100275542
0.100620689
0.100836012
0.100919408
0.100868913
0.100682713
0.100359142
0.0998966907
0.0992940066
0.0985499004
0.0976633485
0.0966334963
0.0954596619
0.0941413388
0.0926781991
0.0910700958
0.0893170655
0.0874193309
0.0853773025
0.0831915809
0.0808629581
0.0783924195
0.0757811445
0.0730305082
0.0701420818
0.0671176332
0.0639591278
0.0606687279
0.0572487933
0.0537018806
0.0500307426
0.0462383277
0.0423277786
0.0383024313
0.0341658132
0.0299216417
0.0255738219
0.0211264444
0.0165837827
0.011950291
0.00723060041
0.00242951625
0.00244798552
0.007396762
0.0124115073
0.0174867566
0.0226168905
0.02779614
0.0330185906
0.038278188
0.0435687429
0.0488839367
0.054217327
0.0595623535
0.0649123438
0.0702605202
0.0756000055
0.0809238296
0.0862249366
0.0914961915
0.0967303873
0.101920252
0.107058456
0.112137619
0.117150321
0.122089103
0.126946482
0.131714954
0.136387007
0.140955123
0.145411789
0.149749508
0.153960803
0.158038227
0.161974371
0.165761874
0.169393429
0.172861793
0.176159795
0.179280345
0.18221644
0.184961176
0.187507754
0.189849488
0.191979815
0.193892301
0.195580651
0.197038716
0.198260502
0.199240174
0.199972069
0.2004507
0.200670765
0.200627154
0.200314953
0.199729459
0.198866175
0.197720829
0.19628937
0.194567982
0.192553084
0.19024134
0.187629663
0.18471522
0.181495436
0.177968004
0.174130883
0.169982305
0.165520781
0.160745104
0.155654348
0.150247879
0.144525351
0.138486715
0.132132215
0.125462394
0.118478096
0.111180466
0.103570952
0.0956513049
0.0874235797
0.0788901365
0.0700536392
0.0609170559
0.0514836577
0.0417570179
0.0317410106
0.0214398092
0.0108578839
2.3447056e-16
0.0111287853
0.0225231254
0.034177388
0.0460856583
0.0582417433
0.0706391758
0.0832712186
0.0961308702
0.109210869
0.122503699
0.136001597
0.149696555
0.16358033
0.177644449
0.191880216
0.206278719
0.220830839
0.235527254
0.250358449
0.265314725
0.280386205
0.295562845
0.310834441
0.326190637
0.341620936
0.35711471
0.372661207
0.388249561
0.403868802
0.41950787
0.435155616
0.450800822
0.466432204
0.482038427
0.497608112
0.513129849
0.528592206
0.543983742
0.559293014
0.574508592
0.589619065
0.604613057
0.619479233
0.634206313
0.648783081
0.663198398
0.677441208
0.691500554
0.705365584
0.719025567
0.732469895
0.745688103
0.758669871
0.771405039
0.783883612
0.796095778
0.808031908
0.819682572
0.831038546
0.842090819
0.852830607
0.863249355
0.873338752
0.883090736
0.892497498
0.901551499
0.910245469
0.918572418
0.926525642
0.934098731
0.941285572
0.94808036
0.9544776
0.960472111
0.966059038
0.97123385
0.975992346
0.980330663
0.984245274
0.987732996
0.990790991
0.993416772
0.995608198
0.997363486
0.998681206
0.999560282
1
1
0.999560282
0.998681206
0.997363486
0.995608198
0.993416772
0.990790991
0.987732996
0.984245274
0.980330663
0.975992346
0.97123385
0.966059038
0.960472111
0.9544776
0.94808036
0.941285572
0.934098731
0.926525642
0.918572418
0.910245469
0.901551499
0.892497498
0.883090736
0.873338752
0.863249355
0.852830607
0.842090819
0.831038546
0.819682572
0.808031908
0.796095778
0.783883612
0.771405039
0.758669871
0.745688103
0.732469895
0.719025567
0.705365584
0.691500554
0.677441208
0.663198398
0.648783081
0.634206313
0.619479233
0.604613057
0.589619065
0.574508592
0.559293014
0.543983742
0.528592206
0.513129849
0.497608112
0.482038427
0.466432204
0.450800822
0.435155616
0.41950787
0.403868802
0.388249561
0.372661207
0.35711471
0.341620936
0.326190637
0.310834441
0.295562845
0.280386205
0.265314725
0.250358449
0.235527254
0.220830839
0.206278719
0.191880216
0.177644449
0.16358033
0.149696555
0.136001597
0.122503699
0.109210869
0.0961308702
0.0832712186
0.0706391758
0.0582417433
0.0460856583
0.034177388
0.0225231254
0.0111287853
2.3447056e-16
0.0108578839
0.0214398092
0.0317410106
0.0417570179
0.0514836577
0.0609170559
0.0700536392
0.0788901365
0.0874235797
0.0956513049
0.103570952
0.111180466
0.118478096
0.125462394
0.132132215
0.138486715
0.144525351
0.150247879
0.155654348
0.160745104
0.165520781
0.169982305
0.174130883
0.177968004
0.181495436
0.18471522
0.187629663
0.19024134
0.192553084
0.194567982
0.19628937
0.197720829
0.198866175
0.199729459
0.200314953
0.200627154
0.200670765
0.2004507
0.199972069
0.199240174
0.198260502
0.197038716
0.195580651
0.193892301
0.191979815
0.189849488
0.187507754
0.184961176
0.18221644
0.179280345
0.176159795
0.172861793
0.169393429
0.165761874
0.161974371
0.158038227
0.153960803
0.149749508
0.145411789
0.140955123
0.136387007
0.131714954
0.126946482
0.122089103
0.117150321
0.112137619
0.107058456
0.101920252
0.0967303873
0.0914961915
0.0862249366
0.0809238296
0.0756000055
0.0702605202
0.0649123438
0.0595623535
0.054217327
0.0488839367
0.0435687429
0.038278188
0.0330185906
0.02779614
0.0226168905
0.0174867566
0.0124115073
0.007396762
0.00244798552
0.00242951625
0.00723060041
0.011950291
0.0165837827
0.0211264444
0.0255738219
0.0299216417
0.0341658132
0.0383024313
0.0423277786
0.0462383277
0.0500307426
0.0537018806
0.0572487933
0.0606687279
0.0639591278
0.0671176332
0.0701420818
0.0730305082
0.0757811445
0.0783924195
0.0808629581
0.0831915809
0.0853773025
0.0874193309
0.0893170655
0.0910700958
0.0926781991
0.0941413388
0.0954596619
0.0966334963
0.0976633485
0.0985499004
0.0992940066
0.0998966907
0.100359142
0.100682713
0.100868913
0.100919408
0.100836012
0.100620689
0.100275542
0.0998028129
0.0992048775
0.0984842393
0.0976435257
0.0966854832
0.0956129723
0.0944289622
0.0931365262
0.0917388361
0.0902391571
0.0886408424
0.0869473281
0.0851621274
0.0832888255
0.0813310741
0.0792925856
0.0771771281
0.0749885195
0.0727306221
0.0704073371
0.0680225994
0.0655803716
0.063084639
0.060539404
0.0579486808
0.05531649
0.0526468536
0.0499437894
0.0472113063
0.0444533988
0.0416740423
0.0388771882
0.0360667588
0.033246643
0.0304206914
0.0275927116
0.0247664643
0.0219456585
0.0191339476
0.0163349252
0.0135521214
0.0107889985
0.00804894781
0.00533528581
0.00265125088
1.57260563e-16
0.00261539438
0.00519194733
0.00772676421
0.0102170434
0.0126600788
0.0150532623
0.0173940856
0.0196801428
0.0219091321
0.0240788572
0.0261872293
0.0282322685
0.0302121047
0.0321249791
0.0339692449
0.035743368
0.037445928
0.0390756182
0.0406312462
0.042111734
0.0435161178
0.0448435483
0.0460932899
0.0472647203
0.0483573303
0.0493707228
0.0503046117
0.0511588212
0.0519332845
0.0526280427
0.0532432431
0.0537791377
0.0542360816
0.0546145316
0.0549150434
0.0551382704
0.0552849614
0.055355958
0.0553521927
0.0552746864
0.0551245458
0.0549029609
0.054611202
0.0542506176
0.0538226311
0.0533287378
0.0527705026
0.0521495562
0.0514675924
0.0507263654
0.0499276857
0.0490734178
0.0481654766
0.0472058239
0.0461964657
0.0451394484
0.0440368556
0.0428908051
0.041703445
0.0404769508
0.039213522
0.0379153786
0.036584758
0.0352239116
0.0338351014
0.0324205972
0.0309826728
0.0295236033
0.0280456615
0.0265511155
0.0250422248
0.0235212378
0.0219903889
0.0204518953
0.0189079544
0.0173607408
0.0158124039
0.0142650651
0.012720815
0.0111817114
0.00964977652
0.00812699474
0.00661531042
0.00511662567
0.00363279831
0.00216563986
0.00071691363
0.000711667092
0.00211844074
0.00350179909
0.00486018881
0.00619211289
0.00749613195
0.00877086548
0.010014993
0.0112272551
0.0124064543
0.013551456
0.0146611892
0.015734647
0.0167708874
0.0177690333
0.0187282734
0.0196478622
0.0205271198
0.0213654327
0.022162253
0.0229170987
0.0236295535
0.0242992662
0.0249259505
0.0255093845
0.02604941
0.026545932
0.0269989178
0.0274083963
0.0277744571
0.0280972494
0.028376981
0.0286139172
0.0288083799
0.0289607456
0.0290714449
0.0291409607
0.0291698269
0.0291586267
0.0291079913
0.0290185984
0.0288911703
0.0287264722
0.0285253108
0.0282885324
0.0280170209
0.0277116964
0.0273735129
0.0270034569
0.026602545
0.0261718226
0.0257123614
0.0252252578
0.0247116309
0.0241726203
0.0236093846
0.0230230992
0.0224149542
0.0217861528
0.021137909
0.0204714459
0.0197879937
0.0190887879
0.0183750673
0.0176480721
0.0169090424
0.016159216
0.0153998266
0.0146321026
0.0138572646
0.0130765244
0.012291083
0.0115021291
0.0107108374
0.00991836742
0.00912586162
0.00833444422
0.00754521975
0.00675927173
0.00597766138
0.00520142638
0.00443157974
0.00366910862
0.00291497332
0.00217010623
0.00143541088
0.000711761069
5.77812473e-17
0.000699060483
0.00138464062
0.00205599341
0.00271240518
0.00335319616
0.00397772096
0.00458536899
0.0051755648
0.00574776843
0.00630147563
0.00683621805
0.00735156339
0.00784711542
0.00832251409
0.00877743539
0.00921159134
0.00962472977
0.0100166342
0.0103871235
0.0107360517
0.0110633074
0.0113688139
0.0116525279
0.01191444
0.0121545732
0.0123729831
0.012569757
0.0127450128
0.0128988991
0.013031594
0.0131433042
0.0132342646
0.0133047371
0.0133550099
0.0133853969
0.013396236
0.013387889
0.0133607402
0.0133151954
0.013251681
0.0131706432
0.0130725463
0.0129578725
0.0128271202
0.0126808033
0.0125194498
0.0123436012
0.0121538109
0.0119506433
0.011734673
0.0115064831
0.0112666649
0.0110158162
0.0107545403
0.0104834454
0.0102031431
0.00991424729
0.00961737368
0.00931313821
0.00900215634
0.00868504203
0.00836240675
0.00803485856
0.00770300119
0.00736743315
0.00702874686
0.00668752778
0.00634435361
0.0059997935
0.00565440727
0.00530874468
0.00496334471
0.00461873489
0.00427543064
0.0039339347
0.00359473645
0.00325831147
0.00292512091
0.0025956111
0.00227021303
0.00194934196
0.001633397
0.00132276082
0.00101779927
0.000718861122
0.00042627782
0.000140363257
0.000138586405
0.000410292885
0.000674495899
0.000930953247
0.00117944086
0.00141975282
0.00165170134
0.00187511676
0.00208984739
0.00229575951
0.00249273714
0.00268068196
0.00285951306
0.00302916675
0.00318959634
0.0033407718
0.00348267957
0.00361532215
0.00373871781
0.00385290024
0.00395791813
0.00405383481
0.0041407278
0.00421868838
0.00428782118
0.00434824364
0.00440008558
0.0044434887
0.00447860605
0.00450560152
0.00452464934
0.00453593349
0.00453964723
0.00453599245
0.00452517922
0.00450742516
0.00448295488
0.00445199947
0.00441479585
0.00437158629
0.00432261777
0.00426814149
0.00420841222
0.00414368785
0.00407422874
0.00400029726
0.00392215718
0.00384007319
0.00375431037
0.00366513367
0.0035728074
0.00347759476
0.00337975737
0.00327955477
0.00317724399
0.00307307913
0.00296731089
0.00286018621
0.00275194785
0.00264283403
0.00253307803
0.00242290793
0.00231254618
0.00220220937
0.00209210792
0.0019824458
0.00187342027
0.00176522166
0.00165803316
0.00155203061
0.00144738233
0.00134424894
0.00124278326
0.00114313016
0.00104542646
0.000949800861
0.000856373867
0.000765257746
0.0006765565
0.000590365854
0.000506773266
0.00042585795
0.000347690918
0.000272335037
0.000199845108
0.000130267953
6.36425181e-05
7.63277915e-18
6.06360244e-05
0.000118249448
0.00017283147
0.000224380428
0.000272901604
0.000318407032
0.000360915288
0.000400451271
0.000437045976
0.000470736257
0.000501564581
0.000529578776
0.000554831771
0.000577381332
0.000597289788
0.000614623758
0.00062945387
0.000641854477
0.000651903371
0.000659681496
0.00066527266
0.000668763241
0.0006702419
0.00066979929
0.000667527772
0.000663521124
0.000657874259
0.000650682947
0.000642043539
0.000632052689
0.000620807096
0.000608403235
0.000594937105
0.000580503982
0.000565198171
0.000549112778
0.00053233948
0.000514968309
0.000497087441
0.000478782996
0.000460138849
0.000441236446
0.000422154638
0.000402969516
0.000383754263
0.000364579015
0.000345510734
0.00032661309
0.000307946355
0.000289567313
0.000271529171
0.000253881493
0.000236670141
0.000219937222
0.000203721059
0.00018805616
0.00017297321
0.000158499065
0.000144656762
0.000131465543
0.000118940881
0.000107094525
9.59345506e-05
8.54654244e-05
7.56880738e-05
6.65999704e-05
5.81952207e-05
5.04646662e-05
4.33959919e-05
3.69738435e-05
3.11799517e-05
2.59932649e-05
2.13900878e-05
1.73442275e-05
1.38271452e-05
1.08081136e-05
8.25438023e-06
6.13133416e-06
4.40267826e-06
3.03060449e-06
1.97597265e-06
1.19849185e-06
6.56904246e-07
3.09170473e-07
1.12656298e-07
2.43199855e-08
8.99842151e-10

shape_id 2
num_samples 1400
0.5
0
0
84
-0.5
0
0
85
0.5
0
0
85
-0.5
0
0
84
0.5
0
0
85
-0.5
0
0
84
0.5
0
0
85
-0.5
0
0
171
0.5
0
0
85
-0.5
0
0
85
0.5
0
0
84
-0.5
0
0
84
0.5
0
0
85
-0.5
0
0
85
0.5
0
0
84

shape_id 3
num_samples 4477
0
0
39
0.0009151
-0.0002564
-0.0011492
-0.0018818
-0.0025838
-0.0033595
-0.0042896
-0.005436
-0.0068442
-0.0085334
-0.0104758
-0.0125689
-0.0146253
-0.0164773
-0.0178639
0
0.154416
0.1259682
0.0519012
-0.0510228
-0.1352642
0
-0.0478766
-0.0438642
-0.0395941
0
0.1062383
0
-0.0942188
-0.0912667
-0.0857746
-0.0733475
-0.0525387
-0.0265035
0.0025716
0.0321881
0.0578717
0.0786758
0.0888785
0.0952526
0.1008087
0.1030541
0.0964359
0.1005221
0.1038176
0
0.0874565
0.0505598
0.0098745
-0.0318838
-0.0717867
-0.106888
-0.1344375
-0.1521015
-0.1581751
-0.1517665
-0.132938
-0.1027858
-0.0634416
-0.0179878
0.0297231
0.0753413
0.1143768
0.1426224
0.1566105
0.1540701
0.1343318
0.0986291
0.0502393
-0.005592
-0.0619875
-0.1110679
-0.1448781
-0.1565793
-0.14183
-0.1002216
-0.0365619
0.0382841
0.1074012
0.1492926
0
-0.009225
-0.0009112
0.0072145
0.0153539
0.0237019
0.032305
0.0409898
0.049443
0.0577616
0
0.0745442
-0.0172457
-0.096979
-0.1447351
-0.154502
-0.1299424
-0.0804853
-0.0180529
0.0454646
0.0999647
0.1381699
0.1560475
0.1527389
0.1301316
0.0922101
0.0443004
-0.0076913
-0.0579707
-0.1014274
-0.1340527
-0.1531976
-0.1576694
-0.1476912
-0.1247416
-0.0913125
-0.05061
-0.0062343
0.0381385
0.0790443
0.1134769
0.1390736
0.154239
0.1582028
0.1510159
0.1334914
0.1070999
0.0738309
0.036032
-0.0037614
-0.0429963
-0.0792589
-0.1104131
-0.1347115
-0.150878
-0.1581548
-0.1563203
-0.1456733
-0.1269909
-0.1014635
-0.0706102
-0.0361835
-6.64e-05
0.0358303
0.0696678
0.0997679
0.1246901
0.1432932
0
0.0964626
0.0937251
0.088852
0.0827271
0.075595
0.0689801
0.0613246
0.0512604
0.0387326
0.0239805
0.0081457
-0.0080055
-0.0236045
-0.0376217
-0.0493504
-0.058691
-0.0665623
-0.0730272
-0.0817829
-0.0899645
-0.0983254
-0.1038012
-0.1038147
-0.0985339
-0.0968386
-0.1013492
-0.1026437
0
0.0873399
0.1117724
0.1318927
0.1468446
0.1559613
0.1587974
0.1551541
0.1450949
0.1289516
0.1073521
0.0810799
0.051172
0.0189406
-0.0142705
-0.0470123
-0.0778207
-0.1052813
-0.1280959
-0.1451454
-0.1555479
-0.1587099
-0.1543636
-0.1425936
-0.1238461
-0.0989209
-0.0689474
-0.0353407
0.0002579
0.0360545
0.0701899
0.1008336
0.1262829
0.1450593
0.156001
0.1583409
0.1517691
0.1364732
0.1131519
0.0830012
0.0476685
0.0091783
-0.0301717
-0.0679377
-0.1016764
-0.1291018
-0.148244
-0.1576004
-0.156266
-0.144036
-0.1214653
-0.0898827
-0.0513466
-0.0085456
0.0353596
0.0769467
0.1127828
0.1397039
0.1551033
0.1572036
0.1452899
0.1198763
0.0827812
0.0370882
-0.0130194
-0.0625601
-0.1061829
-0.1387049
-0.1557216
-0.1542343
-0.1332301
-0.0941303
-0.0410157
0.0194581
0.07854
0.126314
0.1530994
0.1512803
0.1174412
0.0545801
-0.0259814
-0.103593
0
-0.0508745
-0.0462451
-0.0410647
-0.0358165
-0.0309028
-0.0264017
-0.0220934
-0.017631
-0.0128911
0
-0.117511
-0.0375477
0.0499636
0.1178432
0.152237
0.1503687
0.1173962
0.0631994
-0.0004682
-0.0622428
-0.1127405
-0.1454856
-0.1572525
-0.1479351
-0.1200734
-0.0781677
-0.0278981
0.0246498
0.0736789
0.1142395
0.1426257
0.156599
0.1554477
0.1399018
0.1119322
0.0744669
0.0310609
-0.0144508
-0.0582836
-0.0969994
-0.1277436
-0.1484186
-0.1577839
-0.1554865
-0.142026
-0.1186628
-0.087283
-0.0502322
-0.0101315
0.0303094
0.0684709
0.1019839
0.1288628
0.1476059
0.1572603
0.15745
0.1483678
0.1307369
0.1057428
0.0749451
0.0401734
0.0034152
-0.0332991
-0.0680054
-0.0989068
-0.12446
-0.143443
-0.1550045
-0.158691
-0.1544534
-0.1426334
-0.1239318
-0.099361
-0.0701852
-0.0378517
-0.0039172
0.030028
0.0624747
0.0918648
0.1170019
0.1368603
0.1506173
0.1577611
0.1580763
0.1516435
0.1388265
0.1202479
0.0967555
0.0693806
0.0392902
0.007736
-0.0239981
-0.0546481
-0.0830188
-0.1080285
-0.1287477
-0.1444305
-0.1545379
-0.1587522
-0.1569836
-0.1493664
-0.1362488
-0.1181744
-0.0958571
-0.0701512
-0.0420167
0
0.0789267
0.0932582
0.0993087
0.1003817
0.1005812
0.1003587
0.0998431
0.0987823
0.0972116
0.0942276
0.0902203
0.0856084
0.0804354
0.0738545
0.0653518
0.0541769
0.0395884
0.0207264
-0.0001897
-0.0224803
-0.0406044
-0.054835
-0.0654298
-0.0732522
-0.0792009
-0.0839589
-0.0880294
-0.0916327
-0.0950377
-0.0983093
-0.1005252
-0.1031766
-0.1037534
-0.0998597
-0.1009329
-0.1025069
-0.1030911
0
0.0473585
0.0738782
0.0980595
0.1190825
0.1362194
0.1488604
0.1565364
0.1589392
0.1559342
0.1475708
0.1340833
0.1158886
0.0935751
0.0678865
0.0396995
0.0099953
-0.0201729
-0.0497161
-0.077548
-0.1026259
-0.1239893
-0.1407988
-0.1523699
-0.1582043
-0.1580124
-0.1517314
-0.1395335
-0.1218254
-0.0992397
-0.072615
-0.0429699
-0.0114654
0.0206366
0.0520234
0.0813833
0.1074611
0.1291119
0.1453545
0.1554172
0.1587787
0.155199
0.1447391
0.1277678
0.1049563
0.0772578
0.0458729
0.0122036
-0.022216
-0.0556691
-0.0867705
-0.1137817
-0.1353521
-0.1503369
-0.1578773
-0.1574658
-0.1489875
-0.1327406
-0.1094392
-0.0801922
-0.0464616
-0.0099981
0.0272418
0.0631953
0.0958041
0.1231331
0.1434864
0.1555201
0.1583384
0.1515708
0.1354218
0.1106884
0.0787417
0.0414713
0.00119
-0.0394931
-0.0778319
-0.1111228
-0.1368954
-0.1531029
-0.1582972
-0.1517764
-0.133688
-0.1050786
-0.0678771
-0.0248074
0.0207734
0.0651029
0.104304
0.1347126
0.1532274
0.1576473
0.1469663
0.1215912
0.0834478
0.0359477
-0.0162075
-0.0673908
-0.1115777
-0.1430081
-0.1569368
-0.1503955
-0.1228768
-0.0768261
-0.0178234
0.0456669
0.1030772
0.1431103
0.1557062
0.134501
0.0795558
-5.12e-05
-0.0844294
0
-0.0568837
-0.0516887
-0.0458752
-0.0399825
-0.0344612
-0.0294012
-0.0245578
-0.0195345
-0.0141947
0
-0.1094514
-0.0239406
0.0645278
0.128381
0.1548973
0.1433288
0.101126
0.0402009
-0.0262828
-0.0863518
-0.1308266
-0.1541331
-0.1544404
-0.1332857
-0.094852
-0.0450666
0.0093457
0.0617391
0.1062751
0.1384557
0.1554428
0.1561679
0.1412557
0.1127985
0.0740227
0.0288918
-0.0183085
-0.0633694
-0.1025085
-0.1326491
-0.1516154
-0.1582379
-0.1523725
-0.1348387
-0.1072932
-0.0720531
-0.0318864
0.0102128
0.0512455
0.0884137
0.1192964
0.1419888
0.1551968
0.1582873
0.1512926
0.1348734
0.1102469
0.0790842
0.0433893
0.0053643
-0.0327267
-0.0686909
-0.1005272
-0.1265296
-0.1453675
-0.1561426
-0.1584183
-0.1522244
-0.1380348
-0.1167261
-0.0894851
-0.0578543
-0.023527
0.0118271
0.0464153
0.0785623
0.1067544
0.1297052
0.146408
0.1561735
0.1586507
0.1538308
0.1420375
0.1238996
0.1003147
0.0724
0.0414367
0.0088098
-0.0240554
-0.0557544
-0.0849624
-0.1104873
-0.1313152
-0.1466465
-0.155923
-0.1588427
-0.1553651
-0.1457054
-0.1303187
-0.1098762
-0.0852322
-0.057387
-0.0274447
0.003432
0.0340664
0.0633131
0.0900988
0.1134608
0.1325788
0.1468022
0.1556678
0.1589133
0.1564812
0.1485156
0.1353529
0.117505
0.095638
0.0705451
0.0431172
0.0143099
-0.01489
-0.0434982
-0.0705661
-0.0952106
-0.1166424
-0.1341895
-0.1473168
-0.1556398
-0.1589348
-0.1571411
-0.1503614
-0.1388535
-0.1230204
-0.1033936
-0.0806145
-0.0554131
-0.0285826
0
0.0866731
0.0968224
0.1000551
0.1009394
0.101526
0.1014723
0.1011376
0.1001896
0.0992518
0.0982923
0.0969939
0.0953381
0.0931795
0.0893698
0.0841462
0.0765019
0.0652632
0.0492926
0.0263052
0.00153
-0.025541
-0.0488915
-0.0657221
-0.0771673
-0.0844817
-0.0891101
-0.0922072
-0.0943432
-0.0958912
-0.0972144
-0.0984287
-0.0997408
-0.1019492
-0.1036481
-0.103445
-0.1004548
-0.1014394
-0.1027889
-0.1032341
0
0.0425372
0.0677314
0.0910484
0.1118019
0.1293712
0.1432198
0.1529136
0.1581342
0.1586917
0.1545321
0.1457415
0.1325466
0.11531
0.0945223
0.0707891
0.0448152
0.0173844
-0.0106633
-0.0384564
-0.0651189
-0.0897981
-0.1116917
-0.1300749
-0.144325
-0.1539439
-0.1585766
-0.1580262
-0.1522636
-0.1414323
-0.1258464
-0.1059856
-0.0824804
-0.0560963
-0.0277086
0.0017238
0.0311903
0.0596626
0.0861304
0.1096376
0.129317
0.1444244
0.1543675
0.1587315
0.1572989
0.1500614
0.1372261
0.1192135
0.0966458
0.0703298
0.0412302
0.0104367
-0.0208751
-0.0514868
-0.0801845
-0.1058067
-0.1272925
-0.1437263
-0.1543799
-0.1587473
-0.1565713
-0.1478623
-0.1329047
-0.112254
-0.0867197
-0.0573399
-0.0253416
0.0079061
0.0409485
0.0723075
0.1005468
0.124339
0.1425297
0.1541962
0.1586995
0.1557224
0.1452972
0.1278152
0.1040214
0.0749893
0.0420811
0.006889
-0.0288365
-0.0632696
-0.0946021
-0.1211371
-0.14138
-0.1541542
-0.1586419
-0.1543947
-0.1415217
-0.1205893
-0.0926415
-0.0591608
-0.0220011
0.0167041
0.054657
0.0895267
0.1190915
0.1413827
0.1548225
0.1583458
0.1514966
0.1344912
0.1082412
0.0743296
0.0349404
-0.0072611
-0.0492907
-0.0880439
-0.1205205
-0.1440584
-0.1565638
-0.1567145
-0.1441224
-0.119433
-0.0843492
-0.0415673
0.0053806
0.0523747
0.0950379
0.1291255
0.1509504
0.1578043
0.1483325
0.1228187
0.0833326
0.0336996
-0.0207331
-0.0735502
-0.1179282
-0.147466
-0.1571159
-0.1441133
-0.1087773
-0.0550255
0.0095586
0.0742602
0.1264923
0.1538306
0.146772
0.1020055
0.0257735
-0.0634125
0
-0.0601848
-0.0549928
-0.0491339
-0.0431901
-0.0376508
-0.0326166
-0.02782
-0.0228152
-0.0174618
0
-0.0983066
-0.006753
0.0814752
0.1389522
0.1549172
0.1314809
0.0790119
0.0117603
-0.0557385
-0.111238
-0.146305
-0.1568978
-0.143184
-0.1088229
-0.0599277
-0.003912
0.0516199
0.0998199
0.1353057
0.1546
0.1563001
0.1410069
0.1110569
0.0701172
0.0226986
-0.0263526
-0.0723371
-0.1111199
-0.139452
-0.1551847
-0.1573682
-0.1462426
-0.1231311
-0.0902598
-0.0505185
-0.0071956
0.0362994
0.076696
0.1110948
0.1371539
0.1532216
0.158413
0.1526271
0.136511
0.1113767
0.07908
0.0418736
0.0022427
-0.0372623
-0.0741861
-0.1063153
